timestamp,v1,v2,label
1752333680.920441,1.522,1.397,0
1752333680.920441,1.542,1.394,0
1752333680.920441,1.525,1.384,0
1752333680.920441,1.542,1.402,0
1752333680.920441,1.525,1.399,0
1752333680.9214396,1.531,1.381,0
1752333680.9214396,1.536,1.396,0
1752333680.9214396,1.529,1.399,0
1752333680.9214396,1.53,1.409,0
1752333680.9214396,1.524,1.383,0
1752333680.9214396,1.547,1.393,0
1752333680.9214396,1.542,1.383,0
1752333680.9214396,1.522,1.409,0
1752333680.9214396,1.529,1.397,0
1752333680.9224367,1.547,1.393,0
1752333680.9224367,1.541,1.386,0
1752333680.9224367,1.535,1.394,0
1752333680.9224367,1.544,1.396,0
1752333680.9224367,1.534,1.389,0
1752333680.9224367,1.537,1.394,0
1752333680.9224367,1.525,1.384,0
1752333680.9224367,1.537,1.393,0
1752333680.923434,1.546,1.393,0
1752333680.923434,1.534,1.409,0
1752333680.923434,1.538,1.402,0
1752333680.923434,1.531,1.399,0
1752333680.923434,1.538,1.388,0
1752333680.923434,1.522,1.383,0
1752333680.923434,1.559,1.397,0
1752333680.923434,1.536,1.383,0
1752333680.923434,1.535,1.383,0
1752333680.9244313,1.526,1.381,0
1752333680.9244313,1.536,1.397,0
1752333680.9244313,1.543,1.389,0
1752333680.9244313,1.538,1.381,0
1752333680.9244313,1.532,1.402,0
1752333680.9244313,1.537,1.391,0
1752333680.9244313,1.538,1.388,0
1752333680.9244313,1.528,1.397,0
1752333680.9254286,1.541,1.399,0
1752333680.9254286,1.53,1.388,0
1752333680.9254286,1.542,1.404,0
1752333680.9254286,1.53,1.399,0
1752333680.9254286,1.542,1.386,0
1752333680.9254286,1.528,1.384,0
1752333680.9254286,1.543,1.386,0
1752333680.9264262,1.534,1.393,0
1752333680.9264262,1.53,1.381,0
1752333680.9264262,1.542,1.401,0
1752333680.9264262,1.53,1.381,0
1752333680.9264262,1.537,1.388,0
1752333680.9264262,1.525,1.389,0
1752333680.9264262,1.538,1.389,0
1752333680.9264262,1.539,1.399,0
1752333680.9274235,1.539,1.399,0
1752333680.9274235,1.533,1.402,0
1752333680.9274235,1.532,1.391,0
1752333680.9274235,1.532,1.397,0
1752333680.9274235,1.53,1.368,0
1752333680.9274235,1.548,1.389,0
1752333680.9274235,1.537,1.37,0
1752333680.9274235,1.529,1.376,0
1752333680.9284236,1.533,1.386,0
1752333680.9284236,1.537,1.386,0
1752333680.9284236,1.527,1.393,0
1752333680.9284236,1.541,1.389,0
1752333680.9284236,1.541,1.41,0
1752333680.9284236,1.528,1.383,0
1752333680.9284236,1.544,1.396,0
1752333680.9284236,1.534,1.394,0
1752333680.929418,1.528,1.389,0
1752333680.929418,1.536,1.388,0
1752333680.929418,1.53,1.396,0
1752333680.929418,1.535,1.386,0
1752333680.929418,1.536,1.396,0
1752333680.929418,1.538,1.389,0
1752333680.929418,1.533,1.389,0
1752333680.929418,1.535,1.394,0
1752333680.9304154,1.534,1.389,0
1752333680.9304154,1.541,1.393,0
1752333680.9304154,1.531,1.391,0
1752333680.9304154,1.534,1.401,0
1752333680.9304154,1.536,1.388,0
1752333680.9304154,1.537,1.397,0
1752333680.9304154,1.535,1.388,0
1752333680.9304154,1.537,1.388,0
1752333680.9314225,1.532,1.407,0
1752333680.9314225,1.531,1.388,0
1752333680.9314225,1.538,1.407,0
1752333680.9314225,1.53,1.388,0
1752333680.9314225,1.538,1.389,0
1752333680.93241,1.534,1.386,0
1752333680.93241,1.536,1.386,0
1752333680.93241,1.542,1.394,0
1752333680.93241,1.534,1.396,0
1752333680.93241,1.53,1.384,0
1752333680.93241,1.531,1.375,0
1752333680.93241,1.538,1.383,0
1752333680.9334073,1.525,1.375,0
1752333680.9334073,1.538,1.384,0
1752333680.9334073,1.531,1.394,0
1752333680.9334073,1.544,1.404,0
1752333680.9334073,1.536,1.402,0
1752333680.9334073,1.53,1.393,0
1752333680.9334073,1.535,1.388,0
1752333680.9334073,1.536,1.388,0
1752333680.9344046,1.531,1.391,0
1752333680.9344046,1.538,1.394,0
1752333680.9344046,1.534,1.389,0
1752333680.9344046,1.524,1.399,0
1752333680.9344046,1.535,1.389,0
1752333680.9344046,1.535,1.389,0
1752333680.9344046,1.535,1.396,0
1752333680.9344046,1.534,1.389,0
1752333680.9344046,1.53,1.399,0
1752333680.935402,1.531,1.396,0
1752333680.935402,1.531,1.402,0
1752333680.935402,1.548,1.389,0
1752333680.935402,1.534,1.381,0
1752333680.935402,1.532,1.401,0
1752333680.935402,1.538,1.383,0
1752333680.935402,1.529,1.399,0
1752333680.935402,1.539,1.388,0
1752333680.9363995,1.533,1.404,0
1752333680.9363995,1.536,1.396,0
1752333680.9363995,1.539,1.386,0
1752333680.9363995,1.541,1.397,0
1752333680.9363995,1.534,1.389,0
1752333680.9363995,1.536,1.393,0
1752333680.9363995,1.53,1.384,0
1752333680.9363995,1.532,1.412,0
1752333680.9373972,1.529,1.384,0
1752333680.9373972,1.532,1.409,0
1752333680.9373972,1.532,1.389,0
1752333680.9373972,1.532,1.388,0
1752333680.9373972,1.538,1.383,0
1752333680.9373972,1.534,1.38,0
1752333680.9373972,1.533,1.402,0
1752333680.9373972,1.531,1.376,0
1752333680.938394,1.542,1.409,0
1752333680.938394,1.533,1.386,0
1752333680.938394,1.528,1.405,0
1752333680.938394,1.535,1.386,0
1752333680.938394,1.538,1.409,0
1752333680.938394,1.542,1.381,0
1752333680.938394,1.543,1.381,0
1752333680.938394,1.536,1.381,0
1752333680.9393914,1.531,1.401,0
1752333680.9393914,1.536,1.394,0
1752333680.9393914,1.529,1.386,0
1752333680.9393914,1.532,1.388,0
1752333680.9393914,1.528,1.396,0
1752333680.9393914,1.535,1.384,0
1752333680.9393914,1.534,1.386,0
1752333680.9393914,1.539,1.399,0
1752333680.9403887,1.529,1.394,0
1752333680.9403887,1.542,1.388,0
1752333680.9403887,1.536,1.397,0
1752333680.9403887,1.529,1.393,0
1752333680.9403887,1.538,1.412,0
1752333680.9403887,1.53,1.383,0
1752333680.9403887,1.534,1.396,0
1752333680.9403887,1.531,1.405,0
1752333680.941386,1.516,1.386,0
1752333680.941386,1.55,1.389,0
1752333680.941386,1.541,1.393,0
1752333680.941386,1.537,1.397,0
1752333680.941386,1.532,1.389,0
1752333680.941386,1.536,1.412,0
1752333680.941386,1.533,1.384,0
1752333680.9423833,1.548,1.401,0
1752333680.9423833,1.533,1.397,0
1752333680.9423833,1.542,1.396,0
1752333680.9423833,1.51,1.38,0
1752333680.9423833,1.546,1.407,0
1752333680.9423833,1.538,1.386,0
1752333680.9423833,1.532,1.388,0
1752333680.9423833,1.538,1.397,0
1752333680.9433808,1.538,1.393,0
1752333680.9433808,1.537,1.409,0
1752333680.9433808,1.529,1.376,0
1752333680.9433808,1.535,1.384,0
1752333680.9433808,1.535,1.376,0
1752333680.9433808,1.534,1.396,0
1752333680.9433808,1.538,1.384,0
1752333680.9443781,1.537,1.393,0
1752333680.9443781,1.537,1.388,0
1752333680.9443781,1.53,1.383,0
1752333680.9443781,1.537,1.394,0
1752333680.9443781,1.534,1.386,0
1752333680.9443781,1.544,1.401,0
1752333680.9443781,1.533,1.386,0
1752333680.9443781,1.525,1.409,0
1752333680.9453754,1.532,1.383,0
1752333680.9453754,1.538,1.389,0
1752333680.9453754,1.538,1.386,0
1752333680.9453754,1.534,1.389,0
1752333680.9453754,1.532,1.41,0
1752333680.9453754,1.529,1.401,0
1752333680.9453754,1.537,1.402,0
1752333680.9453754,1.529,1.386,0
1752333680.9463725,1.534,1.384,0
1752333680.9463725,1.526,1.389,0
1752333680.9463725,1.538,1.405,0
1752333680.9463725,1.538,1.396,0
1752333680.9463725,1.537,1.386,0
1752333680.9463725,1.524,1.388,0
1752333680.9463725,1.534,1.397,0
1752333680.9463725,1.536,1.409,0
1752333680.94737,1.542,1.396,0
1752333680.94737,1.538,1.409,0
1752333680.94737,1.534,1.393,0
1752333680.94737,1.518,1.391,0
1752333680.94737,1.538,1.401,0
1752333680.94737,1.532,1.394,0
1752333680.94737,1.538,1.391,0
1752333680.9483674,1.552,1.394,0
1752333680.9483674,1.535,1.399,0
1752333680.9483674,1.532,1.401,0
1752333680.9483674,1.532,1.41,0
1752333680.9483674,1.53,1.397,0
1752333680.9483674,1.533,1.401,0
1752333680.9483674,1.53,1.381,0
1752333680.9494073,1.544,1.401,0
1752333680.9494073,1.53,1.389,0
1752333680.9494073,1.531,1.401,0
1752333680.9494073,1.536,1.393,0
1752333680.9494073,1.53,1.397,0
1752333680.9494073,1.533,1.389,0
1752333680.9494073,1.533,1.386,0
1752333680.9494073,1.535,1.401,0
1752333680.9504018,1.528,1.405,0
1752333680.9504018,1.532,1.399,0
1752333680.9504018,1.536,1.399,0
1752333680.9504018,1.531,1.401,0
1752333680.9504018,1.537,1.391,0
1752333680.9504018,1.533,1.388,0
1752333680.9504018,1.536,1.393,0
1752333680.9504018,1.533,1.402,0
1752333680.9504018,1.538,1.409,0
1752333680.9513977,1.532,1.383,0
1752333680.9513977,1.538,1.393,0
1752333680.9513977,1.533,1.407,0
1752333680.9513977,1.537,1.405,0
1752333680.9513977,1.532,1.405,0
1752333680.9513977,1.538,1.389,0
1752333680.9513977,1.531,1.401,0
1752333680.9513977,1.527,1.393,0
1752333680.9513977,1.532,1.401,0
1752333680.9523973,1.533,1.399,0
1752333680.9523973,1.536,1.389,0
1752333680.9523973,1.53,1.383,0
1752333680.9523973,1.536,1.409,0
1752333680.9523973,1.535,1.384,0
1752333680.9523973,1.531,1.391,0
1752333680.9523973,1.533,1.389,0
1752333680.9523973,1.529,1.402,0
1752333680.9533904,1.538,1.394,0
1752333680.9533904,1.534,1.386,0
1752333680.9533904,1.533,1.41,0
1752333680.9533904,1.536,1.393,0
1752333680.9533904,1.541,1.389,0
1752333680.9533904,1.534,1.389,0
1752333680.9598057,1.536,1.397,0
1752333680.9702842,1.533,1.388,0
1752333680.9852731,1.544,1.394,0
1752333680.993227,1.533,1.401,0
1752333681.0024233,1.542,1.386,0
1752333681.014687,1.533,1.393,0
1752333681.0253866,1.543,1.396,0
1752333681.0365973,1.551,1.393,0
1752333681.0475674,1.533,1.394,0
1752333681.0587955,1.532,1.396,0
1752333681.0697644,1.534,1.397,0
1752333681.0807064,1.534,1.405,0
1752333681.0917664,1.538,1.391,0
1752333681.1022387,1.534,1.397,0
1752333681.1130576,1.535,1.389,0
1752333681.1244867,1.53,1.404,0
1752333681.1372037,1.543,1.402,0
1752333681.1501434,1.53,1.388,0
1752333681.1575363,1.544,1.393,0
1752333681.1679823,1.534,1.394,0
1752333681.1785514,1.536,1.388,0
1752333681.1899946,1.542,1.401,0
1752333681.201421,1.534,1.402,0
1752333681.2176747,1.53,1.386,0
1752333681.2246435,1.535,1.399,0
1752333681.2346163,1.537,1.386,0
1752333681.2447715,1.545,1.399,0
1752333681.2563097,1.542,1.402,0
1752333681.2673385,1.539,1.386,0
1752333681.2787664,1.531,1.399,0
1752333681.2947795,1.534,1.38,0
1752333681.302758,1.531,1.381,0
1752333681.311734,1.532,1.393,0
1752333681.3219354,1.538,1.391,0
1752333681.3325825,1.532,1.389,0
1752333681.343905,1.532,1.393,0
1752333681.3551466,1.542,1.393,0
1752333681.3661394,1.53,1.393,0
1752333681.3791082,1.541,1.396,0
1752333681.3890908,1.53,1.38,0
1752333681.3989072,1.539,1.391,0
1752333681.4106524,1.538,1.388,0
1752333681.4210203,1.53,1.402,0
1752333681.431537,1.542,1.401,0
1752333681.4498396,1.531,1.397,0
1752333681.4568546,1.538,1.394,0
1752333681.467792,1.53,1.384,0
1752333681.4758875,1.537,1.394,0
1752333681.4868672,1.529,1.396,0
1752333681.497855,1.536,1.397,0
1752333681.5090966,1.534,1.388,0
1752333681.5203435,1.53,1.396,0
1752333681.5382981,1.534,1.384,0
1752333681.5442815,1.534,1.393,0
1752333681.553258,1.534,1.402,0
1752333681.563263,1.534,1.381,0
1752333681.5752575,1.538,1.396,0
1752333681.5860345,1.544,1.389,0
1752333681.5975733,1.536,1.407,0
1752333681.6095808,1.538,1.38,0
1752333681.6225092,1.533,1.399,0
1752333681.6302211,1.532,1.405,0
1752333681.6412992,1.532,1.397,0
1752333681.6515434,1.526,1.383,0
1752333681.6633298,1.533,1.381,0
1752333681.6740048,1.538,1.397,0
1752333681.6859396,1.533,1.397,0
1752333681.6989295,1.538,1.41,0
1752333681.7070768,1.53,1.401,0
1752333681.7175727,1.542,1.393,0
1752333681.7291415,1.548,1.402,0
1752333681.7405035,1.53,1.405,0
1752333681.7512918,1.544,1.383,0
1752333681.7636287,1.536,1.397,0
1752333681.7765799,1.531,1.407,0
1752333681.783562,1.533,1.384,0
1752333681.7950423,1.532,1.391,0
1752333681.8057995,1.538,1.396,0
1752333681.8164864,1.538,1.401,0
1752333681.8280606,1.532,1.396,0
1752333681.8418276,1.528,1.394,0
1752333681.8507757,1.548,1.399,0
1752333681.860747,1.538,1.402,0
1752333681.8715672,1.53,1.388,0
1752333681.8829875,1.536,1.397,0
1752333681.8937624,1.538,1.407,0
1752333681.9050756,1.532,1.389,0
1752333681.9197817,1.538,1.393,0
1752333681.926997,1.538,1.394,0
1752333681.938965,1.534,1.394,0
1752333681.9489398,1.549,1.394,0
1752333681.9600756,1.53,1.401,0
1752333681.9707663,1.538,1.394,0
1752333681.9814765,1.536,1.401,0
1752333681.9930537,1.534,1.405,0
1752333682.0075188,1.534,1.381,0
1752333682.0164955,1.534,1.396,0
1752333682.026105,1.532,1.384,0
1752333682.0370445,1.538,1.41,0
1752333682.0477712,1.53,1.384,0
1752333682.0591524,1.532,1.396,0
1752333682.070463,1.535,1.399,0
1752333682.08573,1.536,1.405,0
1752333682.0927105,1.53,1.405,0
1752333682.104057,1.529,1.388,0
1752333682.1141202,1.525,1.407,0
1752333682.1253848,1.534,1.402,0
1752333682.1362903,1.542,1.394,0
1752333682.1464896,1.535,1.396,0
1752333682.1577172,1.538,1.409,0
1752333682.1707003,1.534,1.401,0
1752333682.1846302,1.531,1.391,0
1752333682.1907303,1.535,1.388,0
1752333682.20266,1.538,1.388,0
1752333682.2128735,1.532,1.409,0
1752333682.2249737,1.541,1.384,0
1752333682.2348201,1.552,1.393,0
1752333682.2464297,1.526,1.397,0
1752333682.262391,1.535,1.41,0
1752333682.2723906,1.541,1.399,0
1752333682.2813401,1.524,1.396,0
1752333682.2902884,1.534,1.381,0
1752333682.3008125,1.53,1.386,0
1752333682.312496,1.544,1.393,0
1752333682.3224177,1.533,1.386,0
1752333682.3338423,1.546,1.404,0
1752333682.3450837,1.536,1.405,0
1752333682.3581932,1.538,1.409,0
1752333682.3691638,1.541,1.389,0
1752333682.3776276,1.535,1.41,0
1752333682.3896627,1.533,1.393,0
1752333682.3998153,1.533,1.391,0
1752333682.410747,1.539,1.389,0
1752333682.422393,1.536,1.401,0
1752333682.4361818,1.532,1.405,0
1752333682.4491143,1.532,1.396,0
1752333682.455098,1.538,1.396,0
1752333682.4663527,1.531,1.401,0
1752333682.4770436,1.548,1.409,0
1752333682.4877079,1.529,1.401,0
1752333682.4986079,1.539,1.396,0
1752333682.5096116,1.53,1.388,0
1752333682.5219944,1.534,1.393,0
1752333682.5339704,1.527,1.389,0
1752333682.5426683,1.53,1.401,0
1752333682.5540504,1.533,1.412,0
1752333682.5649014,1.531,1.391,0
1752333682.5762715,1.538,1.394,0
1752333682.586805,1.532,1.388,0
1752333682.6034353,1.536,1.399,0
1752333682.6104174,1.526,1.407,0
1752333682.623387,1.538,1.399,0
1752333682.6313608,1.534,1.389,0
1752333682.6417491,1.539,1.401,0
1752333682.65279,1.53,1.401,0
1752333682.6643429,1.538,1.396,0
1752333682.6745694,1.54,1.415,0
1752333682.6863708,1.526,1.383,0
1752333682.7033372,1.536,1.402,0
1752333682.7093215,1.539,1.402,0
1752333682.7202926,1.538,1.397,0
1752333682.7295644,1.542,1.401,0
1752333682.7409315,1.522,1.394,0
1752333682.7514744,1.538,1.396,0
1752333682.763131,1.546,1.402,0
1752333682.7786977,1.536,1.397,0
1752333682.7866483,1.525,1.378,0
1752333682.7966487,1.536,1.393,0
1752333682.806655,1.532,1.383,0
1752333682.8185468,1.533,1.393,0
1752333682.828783,1.538,1.397,0
1752333682.840259,1.534,1.389,0
1752333682.8575692,1.541,1.388,0
1752333682.8635533,1.537,1.389,0
1752333682.8735263,1.53,1.396,0
1752333682.88413,1.53,1.386,0
1752333682.8948307,1.533,1.394,0
1752333682.9064107,1.535,1.393,0
1752333682.9171793,1.542,1.401,0
1752333682.9364655,1.526,1.402,0
1752333682.9424493,1.528,1.402,0
1752333682.9524298,1.538,1.388,0
1752333682.961371,1.547,1.412,0
1752333682.971781,1.535,1.401,0
1752333682.9832206,1.541,1.378,0
1752333682.9941492,1.542,1.383,0
1752333683.005113,1.529,1.383,0
1752333683.0180483,1.548,1.407,0
1752333683.030104,1.531,1.388,0
1752333683.0381339,1.505,1.396,0
1752333683.048278,1.538,1.396,0
1752333683.0607219,1.544,1.397,0
1752333683.0705957,1.544,1.391,0
1752333683.0825086,1.534,1.393,0
1752333683.0954835,1.55,1.401,0
1752333683.1064696,1.541,1.405,0
1752333683.1144226,1.544,1.396,0
1752333683.1264215,1.539,1.389,0
1752333683.1372182,1.542,1.399,0
1752333683.1481767,1.541,1.393,0
1752333683.1591089,1.537,1.394,0
1752333683.1751938,1.535,1.389,0
1752333683.1831732,1.543,1.394,0
1752333683.1931465,1.52,1.401,0
1752333683.2034419,1.546,1.394,0
1752333683.2145605,1.531,1.397,0
1752333683.2249286,1.521,1.381,0
1752333683.2359343,1.543,1.389,0
1752333683.2531543,1.531,1.393,0
1752333683.2598984,1.542,1.394,0
1752333683.270869,1.538,1.394,0
1752333683.2801092,1.528,1.401,0
1752333683.2906992,1.548,1.394,0
1752333683.302181,1.528,1.381,0
1752333683.313282,1.508,1.373,0
1752333683.3302295,1.541,1.384,0
1752333683.3372104,1.537,1.393,0
1752333683.3461962,1.523,1.38,0
1752333683.3570817,1.547,1.405,0
1752333683.3680363,1.528,1.383,0
1752333683.3794532,1.535,1.394,0
1752333683.3903298,1.542,1.394,0
1752333683.4086401,1.528,1.396,0
1752333683.416646,1.532,1.409,0
1752333683.4235997,1.538,1.389,0
1752333683.4335158,1.525,1.391,0
1752333683.4450734,1.542,1.388,0
1752333683.4563704,1.537,1.397,0
1752333683.4670415,1.53,1.386,0
1752333683.4780114,1.539,1.394,0
1752333683.493969,1.533,1.388,0
1752333683.5009503,1.532,1.407,0
1752333683.5111194,1.543,1.407,0
1752333683.522382,1.53,1.396,0
1752333683.5333424,1.509,1.386,0
1752333683.5445585,1.543,1.388,0
1752333683.5552886,1.532,1.396,0
1752333683.5656626,1.541,1.394,0
1752333683.579682,1.543,1.396,0
1752333683.5909646,1.525,1.38,0
1752333683.598919,1.541,1.409,0
1752333683.6104815,1.537,1.393,0
1752333683.6211293,1.52,1.402,0
1752333683.632221,1.554,1.399,0
1752333683.642828,1.532,1.384,0
1752333683.6597803,1.53,1.394,0
1752333683.6667616,1.542,1.383,0
1752333683.6757367,1.546,1.405,0
1752333683.687765,1.538,1.383,0
1752333683.6976295,1.538,1.393,0
1752333683.7096808,1.533,1.386,0
1752333683.7198317,1.521,1.409,0
1752333683.7364237,1.541,1.393,0
1752333683.7424078,1.538,1.405,0
1752333683.754351,1.517,1.391,0
1752333683.7641337,1.541,1.384,0
1752333683.7749596,1.538,1.393,0
1752333683.7864215,1.523,1.396,0
1752333683.797496,1.548,1.394,0
1752333683.817505,1.528,1.384,0
1752333683.823488,1.547,1.402,0
1752333683.8304687,1.545,1.394,0
1752333683.840548,1.523,1.399,0
1752333683.8520744,1.541,1.405,0
1752333683.8630283,1.542,1.409,0
1752333683.8747416,1.531,1.409,0
1752333683.8853433,1.541,1.393,0
1752333683.8961165,1.541,1.396,0
1752333683.9081132,1.53,1.376,0
1752333683.9220748,1.55,1.396,0
1752333683.9290998,1.54,1.388,0
1752333683.9402218,1.53,1.389,0
1752333683.9504066,1.533,1.386,0
1752333683.9624677,1.549,1.394,0
1752333683.973058,1.537,1.407,0
1752333683.9890378,1.525,1.383,0
1752333683.9960468,1.55,1.407,0
1752333684.007987,1.537,1.386,0
1752333684.0170484,1.51,1.393,0
1752333684.028335,1.542,1.394,0
1752333684.0394647,1.538,1.393,0
1752333684.049855,1.518,1.394,0
1752333684.0614748,1.538,1.397,0
1752333684.0731297,1.538,1.402,0
1752333684.08609,1.499,1.386,0
1752333684.0980568,1.556,1.401,0
1752333684.1050394,1.53,1.384,0
1752333684.115533,1.544,1.399,0
1752333684.1266286,1.532,1.396,0
1752333684.1384246,1.519,1.393,0
1752333684.14887,1.538,1.386,0
1752333684.1595428,1.545,1.407,0
1752333684.177518,1.5,1.388,0
1752333684.1844993,1.545,1.405,0
1752333684.1934755,1.533,1.393,0
1752333684.2040477,1.543,1.383,0
1752333684.2145133,1.535,1.388,0
1752333684.2267938,1.518,1.388,0
1752333684.2370632,1.546,1.401,0
1752333684.2570298,1.523,1.383,0
1752333684.264011,1.549,1.394,0
1752333684.2709916,1.531,1.388,0
1752333684.2808297,1.521,1.401,0
1752333684.2922606,1.556,1.393,0
1752333684.3030264,1.539,1.397,0
1752333684.3145926,1.545,1.391,0
1752333684.3251152,1.53,1.381,0
1752333684.3365586,1.542,1.396,0
1752333684.3518188,1.529,1.388,0
1752333684.3629966,1.539,1.394,0
1752333684.3689806,1.538,1.388,0
1752333684.3803527,1.522,1.393,0
1752333684.3916514,1.541,1.388,0
1752333684.401362,1.531,1.396,0
1752333684.4129546,1.522,1.388,0
1752333684.4239616,1.558,1.409,0
1752333684.4420128,1.544,1.415,0
1752333684.4489932,1.533,1.393,0
1752333684.4579692,1.539,1.401,0
1752333684.4680989,1.543,1.378,0
1752333684.478429,1.536,1.389,0
1752333684.4903362,1.53,1.386,0
1752333684.5008178,1.53,1.396,0
1752333684.5208092,1.538,1.396,0
1752333684.5238006,1.542,1.402,0
1752333684.5352588,1.529,1.389,0
1752333684.5449004,1.536,1.386,0
1752333684.5565004,1.54,1.384,0
1752333684.5674262,1.505,1.37,0
1752333684.5787282,1.548,1.405,0
1752333684.5891442,1.536,1.391,0
1752333684.5998638,1.535,1.396,0
1752333684.6133633,1.532,1.381,0
1752333684.6253314,1.542,1.399,0
1752333684.6333115,1.53,1.409,0
1752333684.643786,1.542,1.393,0
1752333684.6552842,1.525,1.393,0
1752333684.6663573,1.525,1.383,0
1752333684.6777818,1.545,1.401,0
1752333684.6905327,1.53,1.38,0
1752333684.7035031,1.53,1.391,0
1752333684.7101288,1.558,1.407,0
1752333684.7206473,1.536,1.399,0
1752333684.7315412,1.531,1.386,0
1752333684.7430446,1.538,1.394,0
1752333684.7545073,1.535,1.393,0
1752333684.7703907,1.53,1.394,0
1752333684.7773464,1.542,1.42,0
1752333684.7863224,1.532,1.396,0
1752333684.7979734,1.538,1.401,0
1752333684.8088133,1.545,1.388,0
1752333684.820537,1.531,1.402,0
1752333684.8311608,1.534,1.399,0
1752333684.850076,1.539,1.389,0
1752333684.8570797,1.536,1.41,0
1752333684.8660672,1.538,1.404,0
1752333684.8751335,1.537,1.394,0
1752333684.886664,1.527,1.388,0
1752333684.8976233,1.539,1.412,0
1752333684.9088225,1.529,1.402,0
1752333684.918763,1.513,1.41,0
1752333684.9325247,1.555,1.389,0
1752333684.941501,1.535,1.405,0
1752333684.9520688,1.534,1.397,0
1752333684.963546,1.533,1.405,0
1752333684.9744356,1.525,1.407,0
1752333684.9858181,1.531,1.402,0
1752333684.9967022,1.54,1.399,0
1752333685.0097127,1.528,1.388,0
1752333685.0196435,1.536,1.415,0
1752333685.0290976,1.538,1.393,0
1752333685.0407417,1.528,1.399,0
1752333685.0509448,1.53,1.388,0
1752333685.0616078,1.536,1.396,0
1752333685.0730405,1.532,1.402,0
1752333685.088944,1.544,1.409,0
1752333685.0967202,1.543,1.397,0
1752333685.1060917,1.535,1.388,0
1752333685.117565,1.542,1.402,0
1752333685.128582,1.534,1.393,0
1752333685.1393766,1.542,1.415,0
1752333685.150767,1.534,1.397,0
1752333685.1619372,1.538,1.401,0
1752333685.1728668,1.53,1.396,0
1752333685.1831744,1.536,1.394,0
1752333685.194544,1.532,1.405,0
1752333685.2051873,1.53,1.389,0
1752333685.2165635,1.536,1.386,0
1752333685.2276366,1.522,1.381,0
1752333685.2401657,1.547,1.402,0
1752333685.2501717,1.529,1.388,0
1752333685.2607567,1.531,1.394,0
1752333685.2716644,1.539,1.393,0
1752333685.2821777,1.535,1.391,0
1752333685.2931042,1.534,1.41,0
1752333685.3045738,1.534,1.389,0
1752333685.3191135,1.532,1.394,0
1752333685.3270915,1.527,1.399,0
1752333685.3370776,1.541,1.396,0
1752333685.3481822,1.532,1.402,0
1752333685.3597324,1.541,1.396,0
1752333685.3707263,1.53,1.405,0
1752333685.3811202,1.538,1.399,0
1752333685.3980002,1.536,1.394,0
1752333685.4029868,1.545,1.399,0
1752333685.413957,1.532,1.401,0
1752333685.4258165,1.535,1.389,0
1752333685.4363964,1.537,1.407,0
1752333685.4476867,1.531,1.384,0
1752333685.458746,1.538,1.405,0
1752333685.4773731,1.543,1.407,0
1752333685.4823663,1.548,1.402,0
1752333685.4923344,1.533,1.393,0
1752333685.5020955,1.534,1.393,0
1752333685.5129545,1.533,1.396,0
1752333685.524474,1.534,1.391,0
1752333685.5346398,1.546,1.401,0
1752333685.5521054,1.531,1.399,0
1752333685.558525,1.541,1.397,0
1752333685.5685241,1.524,1.388,0
1752333685.5798059,1.563,1.397,0
1752333685.5906763,1.542,1.396,0
1752333685.6017,1.53,1.394,0
1752333685.6121035,1.534,1.396,0
1752333685.6290116,1.532,1.413,0
1752333685.6359968,1.537,1.401,0
1752333685.6449687,1.529,1.404,0
1752333685.6561048,1.534,1.402,0
1752333685.6676402,1.532,1.396,0
1752333685.6788104,1.539,1.396,0
1752333685.6896489,1.53,1.401,0
1752333685.7071695,1.533,1.402,0
1752333685.7152996,1.535,1.405,0
1752333685.7237852,1.53,1.393,0
1752333685.7325811,1.529,1.409,0
1752333685.744561,1.534,1.388,0
1752333685.7561357,1.537,1.397,0
1752333685.7663362,1.534,1.394,0
1752333685.784618,1.542,1.412,0
1752333685.7925956,1.53,1.376,0
1752333685.7995787,1.537,1.393,0
1752333685.809583,1.533,1.393,0
1752333685.8207996,1.534,1.38,0
1752333685.8321514,1.531,1.384,0
1752333685.8435333,1.535,1.386,0
1752333685.8541386,1.536,1.393,0
1752333685.8705952,1.532,1.386,0
1752333685.876579,1.536,1.394,0
1752333685.8873641,1.528,1.373,0
1752333685.8980002,1.537,1.388,0
1752333685.909622,1.537,1.391,0
1752333685.9203136,1.551,1.389,0
1752333685.9310706,1.534,1.383,0
1752333685.9466314,1.529,1.386,0
1752333685.95461,1.534,1.389,0
1752333685.9639783,1.539,1.394,0
1752333685.9758554,1.542,1.405,0
1752333685.986564,1.535,1.399,0
1752333685.9969227,1.541,1.386,0
1752333686.0086231,1.532,1.384,0
1752333686.022144,1.55,1.393,0
1752333686.034082,1.535,1.396,0
1752333686.0410633,1.534,1.388,0
1752333686.0523582,1.534,1.384,0
1752333686.0634542,1.532,1.41,0
1752333686.0745203,1.538,1.397,0
1752333686.0856693,1.532,1.393,0
1752333686.0991213,1.541,1.402,0
1752333686.111089,1.536,1.384,0
1752333686.118081,1.534,1.389,0
1752333686.129694,1.525,1.383,0
1752333686.1405427,1.538,1.397,0
1752333686.151388,1.537,1.391,0
1752333686.1620336,1.532,1.397,0
1752333686.176792,1.537,1.389,0
1752333686.1847703,1.543,1.41,0
1752333686.1947773,1.542,1.396,0
1752333686.2067604,1.52,1.391,0
1752333686.217261,1.536,1.405,0
1752333686.2285628,1.528,1.386,0
1752333686.2396688,1.537,1.399,0
1752333686.2555432,1.535,1.389,0
1752333686.2615266,1.527,1.405,0
1752333686.271525,1.534,1.402,0
1752333686.2826478,1.535,1.388,0
1752333686.2946799,1.533,1.409,0
1752333686.3056588,1.531,1.388,0
1752333686.3153667,1.534,1.381,0
1752333686.3268158,1.542,1.381,0
1752333686.3417785,1.538,1.397,0
1752333686.3507795,1.524,1.397,0
1752333686.360115,1.538,1.389,0
1752333686.3715498,1.537,1.388,0
1752333686.3815598,1.533,1.397,0
1752333686.3927379,1.533,1.401,0
1752333686.4045272,1.545,1.397,0
1752333686.4199893,1.531,1.412,0
1752333686.426983,1.534,1.389,0
1752333686.4371042,1.538,1.402,0
1752333686.4476933,1.533,1.394,0
1752333686.4597669,1.531,1.393,0
1752333686.4701507,1.546,1.397,0
1752333686.4810178,1.531,1.389,0
1752333686.4945178,1.532,1.396,0
1752333686.5074828,1.534,1.401,0
1752333686.5139184,1.531,1.407,0
1752333686.5255322,1.538,1.383,0
1752333686.536007,1.53,1.393,0
1752333686.5475304,1.535,1.386,0
1752333686.558531,1.542,1.405,0
1752333686.5752013,1.517,1.38,0
1752333686.5811849,1.537,1.412,0
1752333686.5921276,1.533,1.399,0
1752333686.6015635,1.535,1.393,0
1752333686.61321,1.535,1.394,0
1752333686.6246908,1.547,1.393,0
1752333686.6350915,1.54,1.41,0
1752333686.6550431,1.531,1.384,0
1752333686.6620252,1.538,1.41,0
1752333686.6700032,1.539,1.394,0
1752333686.6790864,1.544,1.402,0
1752333686.6903527,1.53,1.394,0
1752333686.700614,1.547,1.401,0
1752333686.7121108,1.536,1.402,0
1752333686.7231581,1.534,1.388,0
1752333686.7371235,1.531,1.388,0
1752333686.7461016,1.525,1.391,0
1752333686.7561293,1.542,1.391,0
1752333686.7677302,1.542,1.396,0
1752333686.7788186,1.535,1.413,0
1752333686.7886329,1.531,1.391,0
1752333686.8005548,1.534,1.383,0
1752333686.8145201,1.542,1.383,0
1752333686.8224986,1.534,1.389,0
1752333686.8328686,1.528,1.397,0
1752333686.8442526,1.537,1.399,0
1752333686.855752,1.499,1.405,0
1752333686.8664553,1.544,1.386,0
1752333686.8774388,1.547,1.405,0
1752333686.890869,1.531,1.388,0
1752333686.8998692,1.538,1.38,0
1752333686.9106133,1.542,1.388,0
1752333686.9216292,1.538,1.393,0
1752333686.9323664,1.532,1.389,0
1752333686.9429138,1.53,1.388,0
1752333686.9541683,1.538,1.389,0
1752333686.9668505,1.544,1.373,0
1752333686.977821,1.535,1.393,0
1752333686.9879296,1.533,1.368,0
1752333686.998022,1.547,1.391,0
1752333687.0097895,1.541,1.393,0
1752333687.0206747,1.542,1.389,0
1752333687.0312717,1.538,1.394,0
1752333687.0440736,1.534,1.384,0
1752333687.0570395,1.542,1.397,0
1752333687.0638602,1.533,1.378,0
1752333687.0758288,1.536,1.394,0
1752333687.0861795,1.53,1.388,0
1752333687.0977535,1.538,1.402,0
1752333687.1085753,1.542,1.399,0
1752333687.122101,1.536,1.394,0
1752333687.1338346,1.537,1.389,0
1752333687.1410441,1.534,1.405,0
1752333687.152099,1.536,1.396,0
1752333687.1631002,1.537,1.389,0
1752333687.1744466,1.535,1.393,0
1752333687.1851008,1.542,1.397,0
1752333687.2000678,1.538,1.399,0
1752333687.2080474,1.52,1.383,0
1752333687.2181883,1.516,1.391,0
1752333687.2294257,1.528,1.405,0
1752333687.240656,1.539,1.394,0
1752333687.2515972,1.529,1.397,0
1752333687.2620535,1.533,1.388,0
1752333687.279655,1.529,1.391,0
1752333687.2866507,1.547,1.394,0
1752333687.2956388,1.525,1.396,0
1752333687.3060434,1.526,1.401,0
1752333687.3170006,1.55,1.409,0
1752333687.3281136,1.521,1.391,0
1752333687.339712,1.547,1.407,0
1752333687.357425,1.53,1.389,0
1752333687.365412,1.53,1.404,0
1752333687.3743799,1.546,1.389,0
1752333687.3830945,1.544,1.405,0
1752333687.3947556,1.512,1.396,0
1752333687.404866,1.541,1.394,1
1752333687.4160686,1.522,1.399,1
1752333687.4269133,1.552,1.388,1
1752333687.4398668,1.568,1.399,1
1752333687.44984,1.492,1.384,1
1752333687.4603345,1.579,1.399,1
1752333687.4707756,1.528,1.383,1
1752333687.4819067,1.53,1.381,1
1752333687.4931226,1.492,1.368,1
1752333687.5128698,1.579,1.399,1
1752333687.5188537,1.584,1.413,1
1752333687.52686,1.552,1.384,1
1752333687.536884,1.496,1.389,1
1752333687.548122,1.567,1.381,1
1752333687.5595996,1.549,1.381,1
1752333687.570513,1.521,1.389,1
1752333687.58086,1.537,1.393,1
1752333687.596551,1.534,1.389,1
1752333687.6035335,1.517,1.389,1
1752333687.614177,1.52,1.383,1
1752333687.625753,1.53,1.386,1
1752333687.636679,1.545,1.391,1
1752333687.6474934,1.567,1.389,1
1752333687.6586895,1.552,1.399,1
1752333687.6741729,1.538,1.393,1
1752333687.6811543,1.541,1.394,1
1752333687.6911037,1.543,1.402,1
1752333687.7021139,1.521,1.394,1
1752333687.7132382,1.528,1.405,1
1752333687.7243142,1.538,1.401,1
1752333687.7348623,1.53,1.393,1
1752333687.746113,1.549,1.391,1
1752333687.7600708,1.578,1.422,1
1752333687.7684772,1.517,1.383,1
1752333687.7791781,1.52,1.41,1
1752333687.790519,1.555,1.409,1
1752333687.8005238,1.581,1.405,1
1752333687.812039,1.529,1.407,1
1752333687.8241258,1.507,1.389,1
1752333687.8370907,1.544,1.401,1
1752333687.8452535,1.505,1.394,1
1752333687.8567815,1.554,1.394,1
1752333687.8673332,1.58,1.402,1
1752333687.8787582,1.452,1.388,1
1752333687.8896086,1.542,1.386,1
1752333687.906576,1.494,1.396,1
1752333687.912561,1.48,1.384,1
1752333687.9235318,1.536,1.393,1
1752333687.932447,1.549,1.389,1
1752333687.9445128,1.541,1.375,1
1752333687.955516,1.549,1.383,1
1752333687.9660676,1.548,1.38,1
1752333687.9852016,1.525,1.394,1
1752333687.9911864,1.513,1.401,1
1752333688.0001616,1.535,1.396,1
1752333688.0100617,1.53,1.389,1
1752333688.021093,1.528,1.399,1
1752333688.031651,1.551,1.401,1
1752333688.0431347,1.524,1.396,1
1752333688.0618641,1.525,1.393,1
1752333688.0688457,1.542,1.388,1
1752333688.0768244,1.531,1.393,1
1752333688.0870976,1.523,1.389,1
1752333688.0979009,1.549,1.399,1
1752333688.1094322,1.536,1.402,1
1752333688.120563,1.498,1.388,1
1752333688.13145,1.545,1.389,1
1752333688.1464067,1.523,1.388,1
1752333688.1533632,1.542,1.397,1
1752333688.1635408,1.523,1.399,1
1752333688.1758308,1.555,1.393,1
1752333688.1865444,1.53,1.389,1
1752333688.1971085,1.48,1.402,1
1752333688.208596,1.56,1.402,1
1752333688.221275,1.604,1.42,1
1752333688.233243,1.584,1.407,1
1752333688.241623,1.629,1.417,1
1752333688.2523758,1.584,1.422,1
1752333688.262906,1.455,1.38,1
1752333688.2738764,1.512,1.384,1
1752333688.2854824,1.531,1.401,1
1752333688.2978778,1.518,1.389,1
1752333688.3098648,1.556,1.399,1
1752333688.3181038,1.526,1.405,1
1752333688.329765,1.534,1.397,1
1752333688.3406413,1.562,1.394,1
1752333688.3513756,1.538,1.394,1
1752333688.362049,1.544,1.396,1
1752333688.376513,1.534,1.399,1
1752333688.3856227,1.542,1.393,1
1752333688.394599,1.512,1.388,1
1752333688.4067297,1.537,1.389,1
1752333688.4169743,1.554,1.396,1
1752333688.428568,1.546,1.386,1
1752333688.4396331,1.519,1.41,1
1752333688.4565904,1.533,1.394,1
1752333688.461576,1.52,1.402,1
1752333688.4735441,1.55,1.388,1
1752333688.482644,1.552,1.409,1
1752333688.4944317,1.542,1.407,1
1752333688.5055606,1.505,1.394,1
1752333688.5159702,1.542,1.41,1
1752333688.5343068,1.515,1.386,1
1752333688.5402884,1.535,1.405,1
1752333688.550262,1.531,1.376,1
1752333688.560117,1.548,1.383,1
1752333688.571579,1.451,1.368,1
1752333688.5816054,1.49,1.383,1
1752333688.5932858,1.49,1.381,1
1752333688.6119866,1.368,1.362,1
1752333688.6179707,1.43,1.367,1
1752333688.6259491,1.488,1.393,1
1752333688.6371174,1.532,1.396,1
1752333688.647758,1.533,1.381,1
1752333688.6593115,1.561,1.396,1
1752333688.670257,1.564,1.409,1
1752333688.6887321,1.556,1.407,1
1752333688.6957135,1.52,1.383,1
1752333688.703693,1.562,1.396,1
1752333688.713819,1.543,1.409,1
1752333688.7255118,1.536,1.394,1
1752333688.7367065,1.541,1.394,1
1752333688.7473555,1.513,1.384,1
1752333688.7582793,1.542,1.401,1
1752333688.7718613,1.527,1.388,1
1752333688.7828403,1.542,1.399,1
1752333688.7911978,1.557,1.397,1
1752333688.8020294,1.541,1.394,1
1752333688.8130953,1.526,1.389,1
1752333688.8247514,1.546,1.399,1
1752333688.8357441,1.563,1.396,1
1752333688.8512406,1.529,1.388,1
1752333688.8582063,1.538,1.396,1
1752333688.8681006,1.515,1.397,1
1752333688.8797884,1.555,1.399,1
1752333688.8905394,1.518,1.402,1
1752333688.9017997,1.538,1.401,1
1752333688.9121075,1.548,1.393,1
1752333688.9239514,1.519,1.391,1
1752333688.935901,1.541,1.405,1
1752333688.945668,1.529,1.388,1
1752333688.9562018,1.565,1.396,1
1752333688.9675045,1.489,1.396,1
1752333688.9786348,1.568,1.393,1
1752333688.9891505,1.521,1.381,1
1752333689.0009797,1.522,1.393,1
1752333689.0139446,1.461,1.373,1
1752333689.022675,1.505,1.393,1
1752333689.033203,1.501,1.397,1
1752333689.0447407,1.548,1.388,1
1752333689.0557644,1.545,1.389,1
1752333689.0666292,1.537,1.401,1
1752333689.078088,1.537,1.407,1
1752333689.0890288,1.534,1.38,1
1752333689.0996337,1.541,1.404,1
1752333689.1107526,1.538,1.394,1
1752333689.1216877,1.521,1.402,1
1752333689.1320665,1.531,1.394,1
1752333689.14313,1.558,1.401,1
1752333689.1581132,1.512,1.396,1
1752333689.166092,1.503,1.38,1
1752333689.1760654,1.535,1.386,1
1752333689.1876338,1.506,1.37,1
1752333689.198361,1.544,1.386,1
1752333689.2094607,1.55,1.381,1
1752333689.2202566,1.561,1.393,1
1752333689.2386992,1.536,1.383,1
1752333689.2446835,1.534,1.401,1
1752333689.2536588,1.539,1.407,1
1752333689.2640915,1.534,1.389,1
1752333689.2754793,1.518,1.388,1
1752333689.2860513,1.539,1.402,1
1752333689.2972786,1.534,1.396,1
1752333689.3148165,1.552,1.401,1
1752333689.3208005,1.549,1.405,1
1752333689.3307738,1.477,1.384,1
1752333689.3416915,1.55,1.412,1
1752333689.3521483,1.549,1.412,1
1752333689.3631825,1.591,1.402,1
1752333689.374536,1.586,1.407,1
1752333689.3925865,1.563,1.399,1
1752333689.3985949,1.573,1.407,1
1752333689.4075706,1.543,1.389,1
1752333689.4181275,1.533,1.413,1
1752333689.4290912,1.615,1.407,1
1752333689.44075,1.555,1.399,1
1752333689.451712,1.542,1.401,1
1752333689.4621851,1.498,1.396,1
1752333689.475154,1.563,1.393,1
1752333689.48413,1.525,1.391,1
1752333689.494976,1.527,1.413,1
1752333689.5068567,1.526,1.393,1
1752333689.5172975,1.535,1.409,1
1752333689.5277052,1.533,1.389,1
1752333689.539578,1.533,1.396,1
1752333689.5541425,1.548,1.394,1
1752333689.5621212,1.539,1.407,1
1752333689.5717525,1.548,1.388,1
1752333689.5828414,1.532,1.393,1
1752333689.5947535,1.552,1.383,1
1752333689.6056755,1.534,1.391,1
1752333689.6160195,1.52,1.388,1
1752333689.6292765,1.541,1.397,1
1752333689.641203,1.552,1.42,1
1752333689.6491528,1.542,1.384,1
1752333689.6606324,1.55,1.399,1
1752333689.6706471,1.556,1.401,1
1752333689.6816332,1.499,1.394,1
1752333689.6933885,1.525,1.401,1
1752333689.7068014,1.555,1.405,1
1752333689.7197666,1.563,1.401,1
1752333689.7257507,1.583,1.397,1
1752333689.7372541,1.563,1.417,1
1752333689.748369,1.537,1.386,1
1752333689.760875,1.602,1.409,1
1752333689.7705827,1.567,1.401,1
1752333689.786017,1.506,1.388,1
1752333689.793995,1.547,1.409,1
1752333689.802971,1.584,1.41,1
1752333689.813762,1.517,1.389,1
1752333689.82529,1.55,1.399,1
1752333689.8359315,1.546,1.397,1
1752333689.8472517,1.599,1.393,1
1752333689.8585618,1.538,1.399,1
1752333689.8777611,1.567,1.399,1
1752333689.8857148,1.563,1.407,1
1752333689.8916984,1.542,1.384,1
1752333689.9022481,1.549,1.417,1
1752333689.9131181,1.544,1.42,1
1752333689.9244342,1.524,1.413,1
1752333689.9355404,1.516,1.412,1
1752333689.9454913,1.525,1.433,1
1752333689.9614336,1.521,1.418,1
1752333689.9694118,1.538,1.413,1
1752333689.9791713,1.567,1.42,1
1752333689.9905345,1.547,1.405,1
1752333690.00111,1.567,1.436,1
1752333690.0116758,1.55,1.431,1
1752333690.0226462,1.532,1.422,1
1752333690.039747,1.535,1.42,1
1752333690.0467286,1.523,1.412,1
1752333690.056008,1.538,1.417,1
1752333690.0664258,1.55,1.409,1
1752333690.0776155,1.542,1.418,1
1752333690.0891356,1.506,1.407,1
1752333690.0999393,1.538,1.441,1
1752333690.1110263,1.55,1.418,1
1752333690.1256168,1.537,1.42,1
1752333690.133595,1.546,1.434,1
1752333690.1435678,1.492,1.41,1
1752333690.154942,1.559,1.418,1
1752333690.1654618,1.612,1.423,1
1752333690.1778188,1.438,1.422,1
1752333690.1873755,1.572,1.415,1
1752333690.203899,1.542,1.409,1
1752333690.2108798,1.562,1.41,1
1752333690.2218504,1.534,1.41,1
1752333690.2318935,1.559,1.41,1
1752333690.2426279,1.552,1.41,1
1752333690.2547262,1.59,1.425,1
1752333690.2650928,1.548,1.409,1
1752333690.2760553,1.517,1.418,1
1752333690.29465,1.555,1.418,1
1752333690.3032753,1.55,1.426,1
1752333690.3092592,1.513,1.422,1
1752333690.3200476,1.55,1.43,1
1752333690.3309453,1.538,1.404,1
1752333690.3424315,1.554,1.426,1
1752333690.3526423,1.535,1.412,1
1752333690.3637145,1.544,1.412,1
1752333690.3794894,1.518,1.425,1
1752333690.3874679,1.551,1.413,1
1752333690.3967621,1.49,1.417,1
1752333690.4083486,1.513,1.407,1
1752333690.4196715,1.574,1.428,1
1752333690.4294987,1.517,1.425,1
1752333690.4416425,1.535,1.42,1
1752333690.4536815,1.53,1.42,1
1752333690.4656496,1.535,1.426,1
1752333690.474157,1.525,1.433,1
1752333690.4853473,1.536,1.415,1
1752333690.4961283,1.524,1.418,1
1752333690.506887,1.512,1.41,1
1752333690.5183284,1.525,1.425,1
1752333690.531296,1.553,1.417,1
1752333690.5432646,1.533,1.433,1
1752333690.5508122,1.542,1.418,1
1752333690.561883,1.557,1.446,1
1752333690.5729136,1.535,1.431,1
1752333690.5841062,1.517,1.428,1
1752333690.5950234,1.434,1.394,1
1752333690.6089888,1.521,1.405,1
1752333690.616967,1.512,1.41,1
1752333690.6284606,1.519,1.405,1
1752333690.639572,1.55,1.413,1
1752333690.6499817,1.509,1.412,1
1752333690.6603298,1.571,1.423,1
1752333690.6715384,1.579,1.426,1
1752333690.687813,1.522,1.41,1
1752333690.6957917,1.525,1.423,1
1752333690.7057648,1.507,1.418,1
1752333690.7160754,1.535,1.415,1
1752333690.726759,1.543,1.422,1
1752333690.7382517,1.546,1.436,1
1752333690.7490869,1.509,1.41,1
1752333690.7603903,1.53,1.418,1
1752333690.77965,1.539,1.422,1
1752333690.785634,1.51,1.413,1
1752333690.7936122,1.521,1.42,1
1752333690.8035862,1.538,1.415,1
1752333690.8157196,1.547,1.426,1
1752333690.8267334,1.528,1.42,1
1752333690.8369257,1.524,1.422,1
1752333690.8484185,1.514,1.423,1
1752333690.8626778,1.542,1.425,1
1752333690.8752966,1.539,1.433,1
1752333690.8856735,1.538,1.401,1
1752333690.8965187,1.51,1.409,1
1752333690.9085023,1.538,1.428,1
1752333690.9188373,1.54,1.436,1
1752333690.9351442,1.526,1.42,1
1752333690.9431226,1.531,1.422,1
1752333690.9521291,1.59,1.431,1
1752333690.963008,1.525,1.413,1
1752333690.9740593,1.594,1.446,1
1752333690.9856868,1.516,1.415,1
1752333690.9954152,1.431,1.413,1
1752333691.0174282,1.533,1.425,1
1752333691.0184257,1.465,1.412,1
1752333691.0304005,1.461,1.401,1
1752333691.0393698,1.56,1.422,1
1752333691.0503402,1.404,1.415,1
1752333691.0613446,1.564,1.426,1
1752333691.0732782,1.541,1.431,1
1752333691.084249,1.517,1.415,1
1752333691.0952196,1.513,1.422,1
1752333691.108185,1.52,1.413,1
1752333691.1221476,1.571,1.426,1
1752333691.1281319,1.533,1.415,1
1752333691.1391022,1.553,1.444,1
1752333691.1500728,1.521,1.422,1
1752333691.1610434,1.563,1.433,1
1752333691.1720157,1.505,1.412,1
1752333691.187972,1.521,1.431,1
1752333691.1959515,1.556,1.422,1
1752333691.2049274,1.564,1.426,1
1752333691.2159324,1.538,1.439,1
1752333691.2269022,1.546,1.428,1
1752333691.2378395,1.538,1.422,1
1752333691.2488506,1.528,1.418,1
1752333691.2677581,1.553,1.423,1
1752333691.2747395,1.542,1.423,1
1752333691.2837164,1.522,1.431,1
1752333691.2926917,1.55,1.436,1
1752333691.3036997,1.538,1.423,1
1752333691.3146396,1.45,1.422,1
1752333691.3256423,1.591,1.425,1
1752333691.3366196,1.625,1.447,1
1752333691.3525321,1.48,1.409,1
1752333691.36051,1.55,1.425,1
1752333691.3694873,1.55,1.431,1
1752333691.3804567,1.478,1.415,1
1752333691.3914275,1.592,1.423,1
1752333691.4030218,1.34,1.394,1
1752333691.4141605,1.459,1.401,1
1752333691.4270048,1.563,1.425,1
1752333691.4389727,1.579,1.426,1
1752333691.446777,1.548,1.412,1
1752333691.457353,1.545,1.447,1
1752333691.469377,1.573,1.436,1
1752333691.4801633,1.529,1.422,1
1752333691.4910939,1.552,1.428,1
1752333691.502166,1.542,1.436,1
1752333691.5173826,1.546,1.425,1
1752333691.5243647,1.518,1.433,1
1752333691.5353355,1.534,1.428,1
1752333691.5463395,1.555,1.412,1
1752333691.5574663,1.5,1.418,1
1752333691.5677984,1.52,1.418,1
1752333691.5795333,1.534,1.425,1
1752333691.5964444,1.533,1.412,1
1752333691.6044612,1.536,1.418,1
1752333691.6134002,1.53,1.413,1
1752333691.622524,1.523,1.413,1
1752333691.634645,1.519,1.428,1
1752333691.6446056,1.544,1.412,1
1752333691.6567004,1.546,1.42,1
1752333691.675239,1.538,1.413,1
1752333691.6822202,1.525,1.441,1
1752333691.6892018,1.565,1.434,1
1752333691.6996725,1.568,1.434,1
1752333691.711555,1.528,1.417,1
1752333691.7216752,1.571,1.444,1
1752333691.7329304,1.517,1.426,1
1752333691.7514393,1.463,1.413,1
1752333691.7584212,1.602,1.438,1
1752333691.7663994,1.568,1.422,1
1752333691.7767122,1.39,1.401,1
1752333691.7880392,1.476,1.393,1
1752333691.7991047,1.506,1.418,1
1752333691.8097687,1.5,1.41,1
1752333691.8215327,1.589,1.433,1
1752333691.8374922,1.516,1.407,1
1752333691.8445077,1.574,1.433,1
1752333691.8535125,1.567,1.423,1
1752333691.8645334,1.575,1.422,1
1752333691.8767693,1.58,1.438,1
1752333691.886796,1.524,1.422,1
1752333691.8975961,1.571,1.426,1
1752333691.9145489,1.521,1.428,1
1752333691.9205666,1.542,1.428,1
1752333691.9305224,1.554,1.42,1
1752333691.9414725,1.555,1.431,1
1752333691.952989,1.543,1.41,1
1752333691.9647563,1.512,1.415,1
1752333691.9753845,1.523,1.425,1
1752333691.990387,1.537,1.415,1
1752333691.9993618,1.55,1.436,1
1752333692.0079124,1.537,1.413,1
1752333692.0187347,1.532,1.42,1
1752333692.0303879,1.577,1.426,1
1752333692.0404058,1.518,1.428,1
1752333692.0514126,1.53,1.426,1
1752333692.0683694,1.544,1.428,1
1752333692.0743537,1.522,1.43,1
1752333692.084528,1.531,1.42,1
1752333692.096464,1.519,1.422,1
1752333692.106991,1.52,1.413,1
1752333692.1186733,1.532,1.425,1
1752333692.129055,1.514,1.413,1
1752333692.1401584,1.543,1.425,1
1752333692.1521273,1.571,1.433,1
1752333692.1616046,1.571,1.439,1
1752333692.172928,1.53,1.446,1
1752333692.1840904,1.473,1.412,1
1752333692.1949785,1.464,1.41,1
1752333692.206673,1.465,1.417,1
1752333692.2183304,1.415,1.402,1
1752333692.2312956,1.56,1.418,1
1752333692.2382767,1.551,1.434,1
1752333692.2502341,1.561,1.433,1
1752333692.2607312,1.531,1.417,1
1752333692.2725239,1.567,1.433,1
1752333692.2835274,1.514,1.436,1
1752333692.2969046,1.555,1.441,1
1752333692.309869,1.528,1.417,1
1752333692.3158607,1.515,1.439,1
1752333692.3295472,1.525,1.41,1
1752333692.3388855,1.55,1.444,1
1752333692.3500228,1.545,1.428,1
1752333692.3604171,1.526,1.426,1
1752333692.3743842,1.521,1.413,1
1752333692.3823628,1.515,1.439,1
1752333692.3933327,1.538,1.423,1
1752333692.4039147,1.562,1.423,1
1752333692.4147499,1.534,1.436,1
1752333692.4254212,1.538,1.423,1
1752333692.4370737,1.549,1.441,1
1752333692.452963,1.563,1.42,1
1752333692.4599435,1.545,1.446,1
1752333692.4709144,1.509,1.423,1
1752333692.4807887,1.525,1.431,1
1752333692.4919317,1.542,1.422,1
1752333692.502944,1.561,1.433,1
1752333692.5143733,1.513,1.413,1
1752333692.5334845,1.557,1.434,1
1752333692.5394664,1.544,1.431,1
1752333692.5484483,1.506,1.412,1
1752333692.5581577,1.484,1.405,1
1752333692.5690007,1.541,1.409,1
1752333692.5800984,1.561,1.438,1
1752333692.591074,1.471,1.423,1
1752333692.6021473,1.494,1.41,1
1752333692.617835,1.471,1.407,1
1752333692.6238284,1.575,1.423,1
1752333692.635372,1.501,1.439,1
1752333692.64576,1.542,1.418,1
1752333692.6576197,1.534,1.433,1
1752333692.6676319,1.513,1.413,1
1752333692.6791234,1.535,1.439,1
1752333692.6908948,1.544,1.433,1
1752333692.7018554,1.538,1.42,1
1752333692.7121422,1.524,1.422,1
1752333692.7224064,1.516,1.436,1
1752333692.7340527,1.538,1.426,1
1752333692.7451704,1.525,1.438,1
1752333692.7558632,1.521,1.433,1
1752333692.770773,1.538,1.436,1
1752333692.7787514,1.554,1.426,1
1752333692.7891686,1.535,1.434,1
1752333692.8005,1.544,1.425,1
1752333692.8115113,1.52,1.425,1
1752333692.8224487,1.535,1.425,1
1752333692.8331008,1.52,1.42,1
1752333692.8450637,1.58,1.436,1
1752333692.8550649,1.525,1.436,1
1752333692.8664858,1.531,1.423,1
1752333692.8771484,1.547,1.426,1
1752333692.8883448,1.529,1.422,1
1752333692.8994436,1.534,1.423,1
1752333692.9099014,1.556,1.42,1
1752333692.92589,1.545,1.439,1
1752333692.9328744,1.537,1.431,1
1752333692.943115,1.548,1.433,1
1752333692.9544332,1.537,1.418,1
1752333692.9648948,1.563,1.428,1
1752333692.976373,1.587,1.447,1
1752333692.9871998,1.573,1.425,1
1752333692.998666,1.566,1.428,1
1752333693.0096383,1.498,1.412,1
1752333693.0196104,1.534,1.426,1
1752333693.0306962,1.603,1.433,1
1752333693.04231,1.575,1.449,1
1752333693.053697,1.553,1.428,1
1752333693.063673,1.503,1.418,1
1752333693.0756419,1.547,1.428,1
1752333693.0876095,1.557,1.422,1
1752333693.0969782,1.562,1.441,1
1752333693.1079783,1.554,1.423,1
1752333693.1196818,1.554,1.425,1
1752333693.1295488,1.51,1.428,1
1752333693.1416078,1.528,1.433,1
1752333693.153543,1.56,1.42,1
1752333693.1664937,1.537,1.423,1
1752333693.17421,1.517,1.425,1
1752333693.1845348,1.531,1.417,1
1752333693.19669,1.536,1.426,1
1752333693.2068105,1.522,1.425,1
1752333693.2184315,1.596,1.436,1
1752333693.231238,1.517,1.42,1
1752333693.2437732,1.533,1.41,1
1752333693.251055,1.541,1.405,1
1752333693.2614386,1.525,1.41,1
1752333693.273157,1.518,1.417,1
1752333693.2846882,1.541,1.409,1
1752333693.2951238,1.504,1.41,1
1752333693.309557,1.496,1.394,1
1752333693.3175356,1.458,1.393,1
1752333693.3275087,1.536,1.402,1
1752333693.3397171,1.542,1.409,1
1752333693.350257,1.538,1.412,1
1752333693.361596,1.526,1.41,1
1752333693.3715997,1.541,1.404,1
1752333693.3885732,1.549,1.433,1
1752333693.396552,1.556,1.431,1
1752333693.4065254,1.416,1.401,1
1752333693.4160604,1.512,1.433,1
1752333693.4270194,1.519,1.407,1
1752333693.4387498,1.567,1.431,1
1752333693.448872,1.575,1.439,1
1752333693.4673226,1.579,1.433,1
1752333693.4743044,1.499,1.433,1
1752333693.4842772,1.513,1.428,1
1752333693.4930532,1.561,1.433,1
1752333693.504743,1.548,1.438,1
1752333693.515005,1.536,1.423,1
1752333693.5267427,1.549,1.42,1
1752333693.5364778,1.568,1.431,1
1752333693.5519438,1.517,1.428,1
1752333693.5619247,1.505,1.415,1
1752333693.5699413,1.552,1.42,1
1752333693.5808716,1.563,1.423,1
1752333693.5922072,1.56,1.423,1
1752333693.6030395,1.513,1.425,1
1752333693.6143377,1.53,1.422,1
1752333693.6292977,1.517,1.413,1
1752333693.6362793,1.569,1.428,1
1752333693.6465406,1.517,1.417,1
1752333693.6587293,1.526,1.418,1
1752333693.6690931,1.513,1.433,1
1752333693.680082,1.534,1.428,1
1752333693.691563,1.544,1.428,1
1752333693.706526,1.527,1.436,1
1752333693.713508,1.552,1.423,1
1752333693.7235544,1.505,1.42,1
1752333693.7357464,1.552,1.438,1
1752333693.7465103,1.542,1.417,1
1752333693.7574775,1.543,1.42,1
1752333693.768577,1.559,1.422,1
1752333693.7839038,1.533,1.426,1
1752333693.790913,1.498,1.41,1
1752333693.800899,1.524,1.428,1
1752333693.8119617,1.555,1.434,1
1752333693.822911,1.539,1.431,1
1752333693.833898,1.524,1.413,1
1752333693.845434,1.543,1.42,1
1752333693.856607,1.544,1.425,1
1752333693.8685753,1.53,1.425,1
1752333693.8786705,1.505,1.433,1
1752333693.8896432,1.53,1.425,1
1752333693.9006207,1.538,1.42,1
1752333693.9105878,1.538,1.425,1
1752333693.9217658,1.538,1.42,1
1752333693.9368293,1.522,1.422,1
1752333693.9497955,1.549,1.431,1
1752333693.9547813,1.515,1.422,1
1752333693.9656296,1.533,1.413,1
1752333693.9771287,1.55,1.428,1
1752333693.9885066,1.491,1.42,1
1752333693.9993587,1.595,1.428,1
1752333694.013955,1.455,1.418,1
1752333694.0239284,1.543,1.422,1
1752333694.0339007,1.55,1.418,1
1752333694.0429223,1.556,1.428,1
1752333694.0537386,1.625,1.436,1
1752333694.0645595,1.563,1.425,1
1752333694.0758438,1.551,1.423,1
1752333694.0874953,1.405,1.415,1
1752333694.0975556,1.53,1.422,1
1752333694.1125216,1.587,1.434,1
1752333694.1214936,1.542,1.425,1
1752333694.1306942,1.563,1.426,1
1752333694.1428266,1.51,1.428,1
1752333694.15257,1.547,1.42,1
1752333694.1634462,1.534,1.422,1
1752333694.1755247,1.539,1.426,1
1752333694.1904857,1.521,1.43,1
1752333694.1994627,1.526,1.425,1
1752333694.2084382,1.517,1.412,1
1752333694.2194755,1.536,1.426,1
1752333694.2297502,1.483,1.412,1
1752333694.241316,1.513,1.428,1
1752333694.2518322,1.55,1.425,1
1752333694.2687898,1.53,1.42,1
1752333694.275771,1.55,1.439,1
1752333694.2848105,1.56,1.425,1
1752333694.295806,1.536,1.425,1
1752333694.307634,1.546,1.423,1
1752333694.3180952,1.536,1.425,1
1752333694.329674,1.539,1.426,1
1752333694.3406487,1.53,1.425,1
1752333694.3536139,1.528,1.415,1
1752333694.3620327,1.53,1.446,1
1752333694.372957,1.533,1.433,1
1752333694.3844976,1.518,1.417,1
1752333694.3950305,1.53,1.418,1
1752333694.4062443,1.525,1.402,1
1752333694.418241,1.549,1.425,1
1752333694.4312131,1.518,1.41,1
1752333694.4393818,1.554,1.407,1
1752333694.4496093,1.533,1.425,1
1752333694.4615667,1.53,1.42,1
1752333694.4719307,1.513,1.409,1
1752333694.4830801,1.536,1.426,1
1752333694.494504,1.534,1.434,1
1752333694.510601,1.531,1.417,1
1752333694.517611,1.531,1.422,1
1752333694.5285535,1.541,1.436,1
1752333694.5379045,1.554,1.436,1
1752333694.5485423,1.535,1.417,1
1752333694.5595396,1.55,1.428,1
1752333694.5711207,1.538,1.426,1
1752333694.5823529,1.532,1.42,1
1752333694.5927625,1.497,1.425,1
1752333694.6057897,1.548,1.425,1
1752333694.6177237,1.617,1.436,1
1752333694.6262598,1.446,1.415,1
1752333694.6373086,1.584,1.452,1
1752333694.6495707,1.517,1.415,1
1752333694.65953,1.492,1.417,1
1752333694.6696904,1.559,1.422,1
1752333694.685318,1.473,1.42,1
1752333694.6932964,1.588,1.413,1
1752333694.7025473,1.533,1.405,1
1752333694.7137747,1.46,1.412,1
1752333694.7245457,1.571,1.428,1
1752333694.736723,1.515,1.425,1
1752333694.7471511,1.529,1.407,1
1752333694.7622676,1.543,1.441,1
1752333694.7702465,1.525,1.425,1
1752333694.7802198,1.521,1.425,1
1752333694.7917264,1.541,1.418,1
1752333694.801836,1.498,1.418,1
1752333694.8126798,1.551,1.431,1
1752333694.824656,1.533,1.423,1
1752333694.839988,1.55,1.42,1
1752333694.8480275,1.533,1.418,1
1752333694.8579395,1.545,1.428,1
1752333694.8679461,1.547,1.425,1
1752333694.8792264,1.541,1.434,1
1752333694.890346,1.536,1.422,1
1752333694.901577,1.523,1.426,1
1752333694.9193528,1.55,1.42,1
1752333694.926334,1.555,1.422,1
1752333694.9342837,1.598,1.433,1
1752333694.9444063,1.521,1.425,1
1752333694.9567788,1.516,1.436,1
1752333694.9672308,1.538,1.413,1
1752333694.9783921,1.534,1.425,1
1752333694.9970608,1.526,1.413,1
1752333695.0040324,1.554,1.431,1
1752333695.012037,1.536,1.428,1
1752333695.0214055,1.523,1.436,1
1752333695.033091,1.534,1.434,1
1752333695.0442011,1.551,1.423,1
1752333695.0553238,1.544,1.425,1
1752333695.0664904,1.528,1.426,1
1752333695.0809114,1.561,1.447,1
1752333695.0888903,1.53,1.423,1
1752333695.0991154,1.532,1.438,1
1752333695.1110022,1.525,1.423,1
1752333695.1215289,1.517,1.426,1
1752333695.1315734,1.567,1.438,1
1752333695.1434305,1.496,1.418,1
1752333695.1602197,1.528,1.42,1
1752333695.167202,1.587,1.426,1
1752333695.1762936,1.503,1.426,1
1752333695.1865678,1.541,1.417,1
1752333695.1984549,1.526,1.422,1
1752333695.2085109,1.541,1.423,1
1752333695.2202253,1.538,1.438,1
1752333695.231603,1.586,1.433,1
1752333695.2435348,1.579,1.446,1
1752333695.253136,1.57,1.423,1
1752333695.2633893,1.521,1.426,1
1752333695.275229,1.547,1.426,1
1752333695.2864115,1.467,1.41,1
1752333695.2973387,1.539,1.426,1
1752333695.309309,1.533,1.428,1
1752333695.3213058,1.555,1.425,1
1752333695.3297672,1.55,1.42,1
1752333695.3405857,1.539,1.444,1
1752333695.3519585,1.558,1.439,1
1752333695.3629088,1.527,1.42,1
1752333695.3738468,1.548,1.422,1
1752333695.387611,1.552,1.428,1
1752333695.3965878,1.565,1.425,1
1752333695.4069939,1.55,1.418,1
1752333695.418586,1.57,1.428,1
1752333695.428879,1.546,1.418,1
1752333695.4405367,1.494,1.428,1
1752333695.4506688,1.516,1.413,1
1752333695.4656343,1.521,1.426,1
1752333695.4776025,1.565,1.428,1
1752333695.4835875,1.505,1.402,1
1752333695.495706,1.529,1.41,1
1752333695.506026,1.538,1.405,1
1752333695.5169828,1.505,1.42,1
1752333695.528615,1.544,1.431,1
1752333695.542325,1.567,1.428,1
1752333695.5503044,1.472,1.41,1
1752333695.5623078,1.601,1.441,1
1752333695.572245,1.569,1.423,1
1752333695.583321,1.59,1.428,1
1752333695.5937576,1.608,1.446,1
1752333695.6051426,1.567,1.425,1
1752333695.6158109,1.464,1.409,1
1752333695.6269598,1.505,1.409,1
1752333695.6439185,1.51,1.434,1
1752333695.6509,1.538,1.422,1
1752333695.6598845,1.505,1.434,1
1752333695.6708777,1.519,1.415,1
1752333695.6818497,1.522,1.431,1
1752333695.6926,1.506,1.409,1
1752333695.7038708,1.538,1.42,1
1752333695.7151484,1.525,1.413,1
1752333695.7302847,1.531,1.413,1
1752333695.7372656,1.546,1.433,1
1752333695.7502313,1.529,1.413,1
1752333695.7589312,1.533,1.413,1
1752333695.7703958,1.539,1.412,1
1752333695.7804987,1.516,1.415,1
1752333695.792608,1.529,1.423,1
1752333695.8026123,1.602,1.441,1
1752333695.8141654,1.505,1.418,1
1752333695.8301208,1.555,1.413,1
1752333695.837102,1.481,1.418,1
1752333695.8472846,1.405,1.407,1
1752333695.8575401,1.615,1.425,1
1752333695.8691914,1.575,1.405,1
1752333695.8801606,1.368,1.383,1
1752333695.8910024,1.543,1.413,1
1752333695.902501,1.604,1.433,1
1752333695.9158857,1.463,1.415,1
1752333695.9248607,1.532,1.407,1
1752333695.9348347,1.541,1.417,1
1752333695.9459624,1.514,1.405,1
1752333695.9576712,1.558,1.415,1
1752333695.9674318,1.544,1.41,1
1752333695.9797614,1.533,1.407,1
1752333695.994474,1.528,1.405,1
1752333696.0024524,1.558,1.426,1
1752333696.0124254,1.55,1.433,1
1752333696.0225224,1.555,1.428,1
1752333696.0340571,1.534,1.422,1
1752333696.044515,1.536,1.418,1
1752333696.0558362,1.523,1.436,1
1752333696.0725946,1.539,1.433,1
1752333696.0815709,1.536,1.423,1
1752333696.0895493,1.509,1.415,1
1752333696.1000261,1.528,1.415,1
1752333696.1124127,1.51,1.402,1
1752333696.1222868,1.252,1.38,1
1752333696.1323407,1.537,1.401,1
1752333696.1434016,1.381,1.396,1
1752333696.156776,1.524,1.415,1
1752333696.1697412,1.56,1.426,1
1752333696.1767225,1.575,1.434,1
1752333696.187751,1.491,1.41,1
1752333696.1984718,1.537,1.431,1
1752333696.2097528,1.542,1.418,1
1752333696.2208734,1.538,1.431,1
1752333696.232083,1.562,1.433,1
1752333696.2455049,1.542,1.425,1
1752333696.2554789,1.555,1.42,1
1752333696.2643595,1.528,1.433,1
1752333696.2767003,1.521,1.426,1
1752333696.2869813,1.509,1.409,1
1752333696.2974904,1.534,1.426,1
1752333696.3093212,1.53,1.431,1
1752333696.3216836,1.525,1.42,1
1752333696.333619,1.525,1.422,1
1752333696.3416133,1.467,1.423,1
1752333696.3529863,1.556,1.431,1
1752333696.3640752,1.58,1.444,1
1752333696.3748999,1.526,1.422,1
1752333696.3861685,1.576,1.42,1
1752333696.3988607,1.67,1.459,1
1752333696.411859,1.457,1.413,1
1752333696.418868,1.61,1.428,1
1752333696.430254,1.338,1.409,1
1752333696.4410088,1.571,1.418,1
1752333696.4513435,1.358,1.396,1
1752333696.462823,1.564,1.415,1
1752333696.4757912,1.537,1.42,1
1752333696.487759,1.532,1.415,1
1752333696.4959662,1.529,1.431,1
1752333696.5065072,1.529,1.418,1
1752333696.5183258,1.538,1.426,1
1752333696.5285618,1.519,1.409,1
1752333696.5396788,1.516,1.415,1
1752333696.5531683,1.542,1.41,1
1752333696.5671296,1.531,1.418,1
1752333696.5729983,1.583,1.415,1
1752333696.5841172,1.536,1.409,1
1752333696.5951774,1.571,1.425,1
1752333696.606523,1.518,1.407,1
1752333696.6173244,1.57,1.425,1
1752333696.6315336,1.467,1.415,1
1752333696.6405096,1.537,1.42,1
1752333696.6494853,1.586,1.423,1
1752333696.660961,1.628,1.439,1
1752333696.6715164,1.731,1.46,1
1752333696.6835132,1.69,1.471,1
1752333696.694523,1.449,1.426,1
1752333696.7108934,1.546,1.428,1
1752333696.7178748,1.472,1.428,1
1752333696.726851,1.545,1.43,1
1752333696.737822,1.525,1.418,1
1752333696.7485096,1.535,1.415,1
1752333696.760065,1.562,1.439,1
1752333696.7712774,1.548,1.425,1
1752333696.7822282,1.53,1.434,1
1752333696.7976837,1.544,1.422,1
1752333696.803668,1.537,1.428,1
1752333696.8150265,1.538,1.428,1
1752333696.8264766,1.524,1.412,1
1752333696.836815,1.532,1.423,1
1752333696.8485618,1.541,1.415,1
1752333696.8591802,1.531,1.423,1
1752333696.8741412,1.557,1.436,1
1752333696.8811224,1.521,1.413,1
1752333696.8915074,1.524,1.412,1
1752333696.9032128,1.556,1.413,1
1752333696.9138534,1.549,1.415,1
1752333696.9255517,1.513,1.41,1
1752333696.9363854,1.526,1.418,1
1752333696.9504397,1.538,1.422,1
1752333696.958418,1.55,1.418,1
1752333696.9685497,1.515,1.405,1
1752333696.979959,1.539,1.422,1
1752333696.9907467,1.484,1.405,1
1752333697.0023344,1.541,1.413,1
1752333697.0128057,1.541,1.426,1
1752333697.0255537,1.48,1.423,1
1752333697.0374825,1.525,1.423,1
1752333697.0464594,1.534,1.418,1
1752333697.057858,1.51,1.428,1
1752333697.0682874,1.537,1.413,1
1752333697.0786288,1.546,1.439,1
1752333697.09011,1.535,1.409,1
1752333697.1057768,1.542,1.41,1
1752333697.1127582,1.516,1.412,1
1752333697.123026,1.533,1.413,1
1752333697.134141,1.561,1.415,1
1752333697.145717,1.53,1.409,1
1752333697.1559913,1.533,1.434,1
1752333697.1672847,1.512,1.409,1
1752333697.1802566,1.517,1.434,1
1752333697.1937442,1.539,1.42,1
1752333697.199728,1.642,1.446,1
1752333697.210741,1.635,1.439,1
1752333697.222432,1.676,1.441,1
1752333697.233307,1.55,1.436,1
1752333697.2439196,1.588,1.42,1
1752333697.2578838,1.563,1.444,1
1752333697.2668853,1.518,1.418,1
1752333697.2768793,1.539,1.428,1
1752333697.2878733,1.526,1.434,1
1752333697.298888,1.57,1.431,1
1752333697.3104737,1.536,1.436,1
1752333697.321305,1.503,1.422,1
1752333697.3369596,1.517,1.425,1
1752333697.3439293,1.527,1.436,1
1752333697.3538933,1.523,1.433,1
1752333697.365084,1.529,1.431,1
1752333697.3762598,1.543,1.423,1
1752333697.3877213,1.536,1.433,1
1752333697.398049,1.53,1.415,1
1752333697.414993,1.532,1.407,1
1752333697.4209757,1.519,1.409,1
1752333697.4319613,1.543,1.425,1
1752333697.4423811,1.525,1.415,1
1752333697.452494,1.536,1.417,1
1752333697.4640799,1.518,1.412,1
1752333697.4753122,1.603,1.446,1
1752333697.4926417,1.521,1.425,1
1752333697.4996228,1.517,1.433,1
1752333697.5085986,1.53,1.412,1
1752333697.5190027,1.552,1.425,1
1752333697.5303342,1.513,1.43,1
1752333697.5406601,1.501,1.413,1
1752333697.5521948,1.572,1.428,1
1752333697.5708673,1.384,1.399,1
1752333697.5788467,1.456,1.422,1
1752333697.5853696,1.606,1.438,1
1752333697.5963373,1.587,1.439,1
1752333697.6074958,1.552,1.413,1
1752333697.6182113,1.545,1.444,1
1752333697.6294017,1.531,1.418,1
1752333697.6399326,1.537,1.42,1
1752333697.6548939,1.532,1.423,1
1752333697.66187,1.552,1.423,1
1752333697.6726928,1.543,1.422,1
1752333697.6846855,1.546,1.417,1
1752333697.6951475,1.543,1.434,1
1752333697.7063723,1.546,1.422,1
1752333697.7174423,1.525,1.428,1
1752333697.732805,1.525,1.409,1
1752333697.7417808,1.533,1.422,1
1752333697.7497597,1.531,1.428,1
1752333697.7614198,1.505,1.407,1
1752333697.7726452,1.542,1.428,1
1752333697.7832596,1.53,1.417,1
1752333697.7944627,1.53,1.425,1
1752333697.8066163,1.525,1.409,1
1752333697.8175766,1.543,1.42,1
1752333697.8276465,1.524,1.415,1
1752333697.8383288,1.534,1.415,1
1752333697.849201,1.531,1.401,1
1752333697.860243,1.555,1.41,1
1752333697.8712385,1.534,1.41,1
1752333697.8845103,1.541,1.423,1
1752333697.8974762,1.547,1.412,1
1752333697.9034595,1.536,1.413,1
1752333697.914769,1.547,1.426,1
1752333697.9257956,1.53,1.417,1
1752333697.9367886,1.418,1.412,1
1752333697.9478323,1.559,1.42,1
1752333697.9642467,1.592,1.436,1
1752333697.971227,1.568,1.426,1
1752333697.9821973,1.56,1.434,1
1752333697.993174,1.588,1.447,1
1752333698.004146,1.55,1.441,1
1752333698.0151086,1.53,1.434,1
1752333698.0250893,1.534,1.426,1
1752333698.0380726,1.561,1.428,1
1752333698.0480294,1.542,1.41,1
1752333698.0939033,1.612,1.431,1
1752333698.1178398,1.583,1.413,1
1752333698.1557324,1.528,1.41,1
1752333698.1617222,1.551,1.433,1
1752333698.1617222,1.559,1.425,1
1752333698.163716,1.543,1.433,1
1752333698.1647084,1.542,1.418,1
1752333698.1657112,1.54,1.436,1
1752333698.1667027,1.529,1.428,1
1752333698.1677058,1.51,1.428,1
1752333698.168717,1.559,1.417,1
1752333698.1896484,1.539,1.423,1
1752333698.1936371,1.532,1.418,1
1752333698.2275462,1.532,1.42,1
1752333698.2325447,1.53,1.438,1
1752333698.2435052,1.53,1.413,1
1752333698.2554655,1.535,1.418,1
1752333698.2734256,1.541,1.428,1
1752333698.29038,1.535,1.422,1
1752333698.291377,1.507,1.415,1
1752333698.292373,1.559,1.433,1
1752333698.2933705,1.525,1.412,1
1752333698.3003519,1.564,1.423,1
1752333698.3118606,1.535,1.415,1
1752333698.3228292,1.523,1.42,1
1752333698.3367875,1.536,1.42,1
1752333698.3487604,1.546,1.412,1
1752333698.355745,1.532,1.409,1
1752333698.3716996,1.535,1.405,1
1752333698.377684,1.549,1.418,1
1752333698.4235559,1.545,1.409,1
1752333698.4255507,1.542,1.423,1
1752333698.4295397,1.538,1.418,1
1752333698.4445057,1.501,1.425,1
1752333698.451486,1.535,1.42,1
1752333698.4564698,1.52,1.423,1
1752333698.461454,1.539,1.438,1
1752333698.4674377,1.513,1.399,1
1752333698.4754167,1.561,1.426,1
1752333698.4870307,1.523,1.422,1
1752333698.4980254,1.584,1.431,1
1752333698.508453,1.556,1.426,1
1752333698.5200255,1.484,1.431,1
1752333698.5383306,1.542,1.418,1
1752333698.5439925,1.539,1.433,1
1752333698.552987,1.487,1.401,1
1752333698.5639715,1.547,1.407,1
1752333698.5753915,1.561,1.425,1
1752333698.5856197,1.554,1.401,1
1752333698.5973878,1.496,1.401,1
1752333698.6076276,1.525,1.407,1
1752333698.6215315,1.509,1.418,1
1752333698.6305122,1.563,1.425,1
1752333698.6404538,1.575,1.423,1
1752333698.651995,1.525,1.413,1
1752333698.6631045,1.549,1.426,1
1752333698.6744666,1.544,1.422,1
1752333698.6846032,1.535,1.42,1
1752333698.702469,1.552,1.428,1
1752333698.7094147,1.542,1.418,1
1752333698.71839,1.535,1.423,1
1752333698.7290163,1.523,1.413,1
1752333698.7400177,1.538,1.433,1
1752333698.7514517,1.55,1.422,1
1752333698.762353,1.551,1.42,1
1752333698.772502,1.535,1.434,1
1752333698.787466,1.539,1.415,1
1752333698.7954447,1.535,1.434,1
1752333698.80608,1.538,1.412,1
1752333698.8175995,1.538,1.433,1
1752333698.8276212,1.542,1.413,1
1752333698.8399394,1.53,1.423,1
1752333698.8570657,1.524,1.418,1
1752333698.8640406,1.525,1.438,1
1752333698.872018,1.597,1.431,1
1752333698.882745,1.53,1.415,1
1752333698.894451,1.537,1.422,1
1752333698.9049911,1.526,1.418,1
1752333698.9163795,1.53,1.422,1
1752333698.9350224,1.521,1.422,1
1752333698.94163,1.544,1.428,1
1752333698.9496088,1.532,1.428,1
1752333698.9602096,1.542,1.434,1
1752333698.9712324,1.536,1.43,1
1752333698.9820163,1.525,1.423,1
1752333698.9933832,1.535,1.438,1
1752333699.0044503,1.534,1.42,1
1752333699.018805,1.538,1.426,1
1752333699.0286603,1.542,1.423,1
1752333699.0366378,1.526,1.415,1
1752333699.0480664,1.53,1.415,1
1752333699.059146,1.535,1.422,1
1752333699.0702982,1.537,1.418,1
1752333699.0804887,1.541,1.426,1
1752333699.0919344,1.514,1.423,1
1752333699.106942,1.494,1.426,1
1752333699.114895,1.586,1.431,1
1752333699.1248686,1.492,1.409,1
1752333699.1363125,1.545,1.425,1
1752333699.1464372,1.537,1.434,1
1752333699.1581361,1.55,1.436,1
1752333699.1695647,1.565,1.433,1
1752333699.1894855,1.564,1.425,1
1752333699.19547,1.567,1.431,1
1752333699.2024503,1.565,1.444,1
1752333699.2132208,1.551,1.423,1
1752333699.2246685,1.548,1.436,1
1752333699.2351916,1.498,1.425,1
1752333699.2459686,1.554,1.431,1
1752333699.257167,1.505,1.428,1
1752333699.2679894,1.538,1.415,1
1752333699.2806208,1.552,1.425,1
1752333699.2945833,1.552,1.441,1
1752333699.3005676,1.538,1.422,1
1752333699.3117688,1.547,1.439,1
1752333699.3228843,1.541,1.42,1
1752333699.3333793,1.511,1.434,1
1752333699.3453789,1.537,1.412,1
1752333699.356531,1.519,1.426,1
1752333699.3726106,1.53,1.402,1
1752333699.379586,1.532,1.41,1
1752333699.389559,1.531,1.412,1
1752333699.4001346,1.563,1.426,1
1752333699.4111593,1.53,1.413,1
1752333699.4220712,1.542,1.428,1
1752333699.4329202,1.53,1.423,1
1752333699.4508815,1.517,1.41,1
1752333699.4578521,1.57,1.439,1
1752333699.4668276,1.498,1.41,1
1752333699.4772272,1.542,1.423,1
1752333699.4880528,1.532,1.433,1
1752333699.4986353,1.537,1.42,1
1752333699.510461,1.529,1.413,1
1752333699.5277421,1.532,1.431,1
1752333699.5351171,1.508,1.42,1
1752333699.5440931,1.531,1.423,1
1752333699.5540662,1.53,1.441,1
1752333699.5650253,1.545,1.422,1
1752333699.5764127,1.556,1.431,1
1752333699.587122,1.52,1.425,1
1752333699.5979846,1.558,1.431,1
1752333699.6119623,1.543,1.433,1
1752333699.619916,1.505,1.423,1
1752333699.6309388,1.445,1.413,1
1752333699.642471,1.545,1.433,1
1752333699.653145,1.538,1.415,1
1752333699.6640103,1.538,1.428,1
1752333699.6755753,1.547,1.434,1
1752333699.6916232,1.552,1.418,1
1752333699.7005973,1.597,1.449,1
1752333699.7075922,1.528,1.413,1
1752333699.718927,1.486,1.418,1
1752333699.7302265,1.596,1.425,1
1752333699.7404504,1.614,1.434,1
1752333699.7520063,1.564,1.423,1
1752333699.7689645,1.571,1.428,1
1752333699.7759457,1.502,1.42,1
1752333699.785028,1.55,1.425,1
1752333699.7959604,1.569,1.433,1
1752333699.8073745,1.565,1.428,1
1752333699.8184538,1.529,1.433,1
1752333699.82973,1.529,1.412,1
1752333699.8426988,1.53,1.436,1
1752333699.8516765,1.537,1.425,1
1752333699.8621695,1.537,1.426,1
1752333699.872516,1.551,1.441,1
1752333699.8837132,1.525,1.431,1
1752333699.8958418,1.539,1.423,1
1752333699.9059112,1.491,1.426,1
1752333699.9206467,1.55,1.426,1
1752333699.9286258,1.522,1.426,1
1752333699.9385986,1.579,1.436,1
1752333699.950324,1.542,1.422,1
1752333699.9608848,1.522,1.42,1
1752333699.971927,1.503,1.418,1
1752333699.9832437,1.548,1.436,1
1752333699.994289,1.546,1.444,1
1752333700.0146801,1.567,1.425,1
1752333700.021663,1.517,1.423,1
1752333700.0276456,1.518,1.428,1
1752333700.0380208,1.532,1.438,1
1752333700.0493288,1.534,1.431,1
1752333700.0604792,1.535,1.423,1
1752333700.0706625,1.531,1.423,1
1752333700.0818067,1.538,1.434,1
1752333700.0964882,1.554,1.426,1
1752333700.1054642,1.513,1.434,1
1752333700.1150208,1.532,1.426,1
1752333700.125981,1.525,1.412,1
1752333700.1379514,1.55,1.428,1
1752333700.1474988,1.536,1.415,1
1752333700.1594186,1.554,1.428,1
1752333700.170382,1.506,1.409,1
1752333700.183413,1.61,1.436,1
1752333700.1926105,1.579,1.426,1
1752333700.2032838,1.556,1.434,1
1752333700.2135584,1.557,1.425,1
1752333700.2245605,1.527,1.42,1
1752333700.2361717,1.616,1.433,1
1752333700.247145,1.563,1.433,1
1752333700.2591665,1.569,1.431,1
1752333700.2696633,1.521,1.428,1
1752333700.2796686,1.479,1.42,1
1752333700.291392,1.608,1.428,1
1752333700.3024454,1.57,1.423,1
1752333700.3133304,1.555,1.428,1
1752333700.3253322,1.503,1.433,1
1752333700.3372977,1.543,1.433,1
1752333700.3462641,1.505,1.412,1
1752333700.357719,1.53,1.422,1
1752333700.3676322,1.525,1.428,1
1752333700.3790438,1.547,1.426,1
1752333700.389976,1.53,1.43,1
1752333700.404068,1.536,1.439,1
1752333700.4130113,1.543,1.415,1
1752333700.4229841,1.538,1.425,1
1752333700.4345236,1.548,1.433,1
1752333700.4445891,1.518,1.415,1
1752333700.456198,1.536,1.425,1
1752333700.4675,1.523,1.422,1
1752333700.4830694,1.531,1.436,1
1752333700.4890468,1.542,1.42,1
1752333700.4999995,1.584,1.433,1
1752333700.511602,1.545,1.418,1
1752333700.5225801,1.538,1.441,1
1752333700.5332685,1.519,1.418,1
1752333700.544427,1.536,1.415,1
1752333700.5636058,1.53,1.422,1
1752333700.5705686,1.538,1.428,1
1752333700.5785472,1.531,1.425,1
1752333700.5875332,1.548,1.415,1
1752333700.5989742,1.562,1.423,1
1752333700.6095278,1.501,1.433,1
1752333700.6216714,1.525,1.431,1
1752333700.631996,1.545,1.425,1
1752333700.647034,1.505,1.412,1
1752333700.655938,1.557,1.438,1
1752333700.6646354,1.584,1.415,1
1752333700.6767888,1.576,1.426,1
1752333700.68709,1.551,1.438,1
1752333700.698046,1.509,1.441,1
1752333700.7095115,1.557,1.431,1
1752333700.7244737,1.523,1.438,1
1752333700.731455,1.51,1.423,1
1752333700.7420626,1.518,1.431,1
1752333700.7529206,1.518,1.418,1
1752333700.7644393,1.555,1.422,1
1752333700.7746844,1.457,1.412,1
1752333700.7866788,1.526,1.41,1
1752333700.8016653,1.517,1.425,1
1752333700.8086216,1.608,1.428,1
1752333700.819876,1.537,1.441,1
1752333700.8298867,1.532,1.423,1
1752333700.841416,1.55,1.431,1
1752333700.8514495,1.494,1.426,1
1752333700.863396,1.521,1.433,1
1752333700.8755133,1.492,1.431,1
1752333700.8884785,1.554,1.438,1
1752333700.896071,1.561,1.43,1
1752333700.9068587,1.512,1.412,1
1752333700.917872,1.55,1.431,1
1752333700.9286258,1.544,1.415,1
1752333700.9402747,1.539,1.439,1
1752333700.9542444,1.543,1.426,1
1752333700.965236,1.534,1.418,1
1752333700.9730563,1.538,1.422,1
1752333700.983854,1.558,1.426,1
1752333700.9951715,1.548,1.425,1
1752333701.0066004,1.526,1.415,1
1752333701.017213,1.543,1.434,1
1752333701.0327196,1.53,1.426,1
1752333701.0396981,1.544,1.422,1
1752333701.051152,1.523,1.438,1
1752333701.0607145,1.521,1.434,1
1752333701.071504,1.552,1.439,1
1752333701.0825372,1.53,1.438,1
1752333701.0938299,1.522,1.422,1
1752333701.1098244,1.533,1.415,1
1752333701.1168065,1.538,1.444,1
1752333701.1277509,1.539,1.428,1
1752333701.138111,1.525,1.423,1
1752333701.149688,1.559,1.438,1
1752333701.16087,1.539,1.417,1
1752333701.170847,1.534,1.438,1
1752333701.1819594,1.542,1.438,1
1752333701.196929,1.53,1.422,1
1752333701.2039025,1.548,1.438,1
1752333701.2148733,1.534,1.422,1
1752333701.2253218,1.506,1.418,1
1752333701.2376242,1.573,1.436,1
1752333701.247885,1.55,1.415,1
1752333701.2584956,1.523,1.426,1
1752333701.2706985,1.58,1.422,1
1752333701.28284,1.551,1.425,1
1752333701.2967858,1.559,1.425,1
1752333701.3027732,1.554,1.42,1
1752333701.3148937,1.561,1.438,1
1752333701.3254128,1.501,1.422,1
1752333701.3360586,1.53,1.438,1
1752333701.3468983,1.502,1.409,1
1752333701.3618603,1.579,1.438,1
1752333701.3698394,1.582,1.426,1
1752333701.3798134,1.525,1.418,1
1752333701.3905773,1.507,1.413,1
1752333701.4025629,1.476,1.413,1
1752333701.4129446,1.559,1.41,1
1752333701.4240456,1.561,1.428,1
1752333701.4390593,1.538,1.418,1
1752333701.4470358,1.52,1.422,1
1752333701.4570436,1.531,1.428,1
1752333701.468047,1.547,1.425,1
1752333701.478629,1.529,1.441,1
1752333701.4900556,1.528,1.423,1
1752333701.5005627,1.534,1.433,1
1752333701.5166569,1.519,1.417,1
1752333701.5246353,1.548,1.426,1
1752333701.5346093,1.534,1.415,1
1752333701.545109,1.528,1.426,1
1752333701.5559683,1.559,1.431,1
1752333701.567536,1.557,1.422,1
1752333701.5780904,1.542,1.422,1
1752333701.5890248,1.524,1.423,1
1752333701.6000252,1.513,1.418,1
1752333701.6149957,1.539,1.422,1
1752333701.62299,1.55,1.423,1
1752333701.632962,1.522,1.42,1
1752333701.6440134,1.53,1.413,1
1752333701.6554608,1.55,1.434,1
1752333701.666097,1.537,1.415,1
1752333701.677456,1.529,1.441,1
1752333701.687626,1.536,1.412,1
1752333701.7039187,1.504,1.417,1
1752333701.7105787,1.527,1.415,1
1752333701.7215493,1.543,1.438,1
1752333701.7322385,1.531,1.431,1
1752333701.7429104,1.543,1.418,1
1752333701.754333,1.538,1.42,1
1752333701.7646747,1.531,1.422,1
1752333701.7814598,1.546,1.434,1
1752333701.7884574,1.525,1.41,1
1752333701.7994287,1.506,1.415,1
1752333701.8090816,1.534,1.412,1
1752333701.8203125,1.563,1.434,1
1752333701.8309736,1.507,1.433,1
1752333701.8418972,1.559,1.438,1
1752333701.8529372,1.503,1.415,1
1752333701.8639498,1.513,1.41,1
1752333701.879876,1.538,1.422,1
1752333701.8869097,1.53,1.409,1
1752333701.8968596,1.524,1.422,1
1752333701.9078565,1.567,1.434,1
1752333701.9198055,1.593,1.433,1
1752333701.9299672,1.528,1.41,1
1752333701.9410605,1.55,1.422,1
1752333701.953661,1.54,1.407,1
1752333701.9666264,1.584,1.425,1
1752333701.974675,1.519,1.431,1
1752333701.9847634,1.498,1.413,1
1752333701.9961996,1.507,1.418,1
1752333702.0067637,1.542,1.41,1
1752333702.0179603,1.555,1.423,1
1752333702.0294282,1.555,1.423,1
1752333702.0454326,1.542,1.422,1
1752333702.0522478,1.554,1.426,1
1752333702.0632207,1.545,1.418,1
1752333702.0725272,1.529,1.418,1
1752333702.0842128,1.554,1.433,1
1752333702.0950906,1.499,1.42,1
1752333702.1066985,1.513,1.415,1
1752333702.1226788,1.536,1.434,1
1752333702.128663,1.532,1.415,1
1752333702.1406672,1.546,1.42,1
1752333702.149607,1.541,1.423,1
1752333702.161667,1.532,1.422,1
1752333702.1720002,1.529,1.436,1
1752333702.1832623,1.538,1.42,1
1752333702.2014623,1.557,1.418,1
1752333702.2084434,1.517,1.422,1
1752333702.2174196,1.567,1.422,1
1752333702.2271256,1.528,1.42,1
1752333702.2379851,1.533,1.422,1
1752333702.2491572,1.54,1.418,1
1752333702.259839,1.517,1.42,1
1752333702.2786689,1.535,1.433,1
1752333702.2856493,1.505,1.433,1
1752333702.2936287,1.532,1.426,1
1752333702.30404,1.591,1.433,1
1752333702.3150127,1.494,1.426,1
1752333702.326153,1.533,1.413,1
1752333702.3364167,1.523,1.425,1
1752333702.3550766,1.48,1.42,1
1752333702.3630557,1.561,1.439,1
1752333702.370037,1.526,1.428,1
1752333702.3810487,1.529,1.412,1
1752333702.391509,1.479,1.425,1
1752333702.4030552,1.568,1.425,1
1752333702.4138525,1.539,1.422,1
1752333702.4253902,1.43,1.423,1
1752333702.4411197,1.485,1.428,1
1752333702.4481015,1.492,1.413,1
1752333702.4580836,1.592,1.449,1
1752333702.468982,1.614,1.441,1
1752333702.4801338,1.53,1.425,1
1752333702.491631,1.559,1.431,1
1752333702.5014534,1.542,1.42,1
1752333702.5188866,1.549,1.415,1
1752333702.5258675,1.521,1.413,1
1752333702.5348742,1.528,1.438,1
1752333702.546219,1.523,1.417,1
1752333702.5569446,1.548,1.423,1
1752333702.5685415,1.548,1.418,1
1752333702.5785077,1.535,1.423,1
1752333702.5914733,1.515,1.426,1
1752333702.6034412,1.547,1.434,1
1752333702.6119788,1.518,1.426,1
1752333702.6229422,1.548,1.43,1
1752333702.6337895,1.538,1.426,1
1752333702.6450791,1.517,1.425,1
1752333702.656258,1.543,1.431,1
1752333702.6674128,1.526,1.415,1
1752333702.6803768,1.554,1.426,1
1752333702.6883562,1.538,1.426,1
1752333702.6998827,1.556,1.418,1
1752333702.711026,1.532,1.412,1
1752333702.7223966,1.542,1.428,1
1752333702.7327077,1.574,1.423,1
1752333702.745923,1.535,1.422,1
1752333702.7588885,1.531,1.425,1
1752333702.7658696,1.528,1.422,1
1752333702.7771072,1.53,1.418,1
1752333702.7885842,1.534,1.431,1
1752333702.798721,1.521,1.423,1
1752333702.8105116,1.531,1.412,1
1752333702.8253357,1.524,1.42,1
1752333702.8333147,1.538,1.417,1
1752333702.8422906,1.531,1.412,1
1752333702.8533778,1.525,1.413,0
1752333702.8645394,1.538,1.425,0
1752333702.8753111,1.541,1.405,0
1752333702.887546,1.531,1.407,0
1752333702.902364,1.531,1.431,0
1752333702.9103115,1.537,1.41,0
1752333702.9202833,1.535,1.415,0
1752333702.9304512,1.538,1.413,0
1752333702.941963,1.541,1.423,0
1752333702.9531088,1.542,1.431,0
1752333702.963926,1.536,1.41,0
1752333702.9813805,1.536,1.423,0
1752333702.9873638,1.53,1.418,0
1752333702.9973378,1.533,1.415,0
1752333703.0076098,1.531,1.409,0
1752333703.0192413,1.534,1.431,0
1752333703.0299697,1.534,1.409,0
1752333703.0412989,1.533,1.413,0
1752333703.0589325,1.531,1.434,0
1752333703.066911,1.542,1.415,0
1752333703.0748897,1.526,1.418,0
1752333703.0852242,1.549,1.422,0
1752333703.0962148,1.539,1.423,0
1752333703.1075068,1.53,1.422,0
1752333703.1180377,1.542,1.433,0
1752333703.1288843,1.541,1.415,0
1752333703.1428509,1.535,1.438,0
1752333703.1518252,1.531,1.423,0
1752333703.1618025,1.542,1.43,0
1752333703.1724865,1.547,1.42,0
1752333703.1842313,1.517,1.415,0
1752333703.1953745,1.538,1.423,0
1752333703.2061126,1.525,1.431,0
1752333703.2221074,1.539,1.422,0
1752333703.230051,1.533,1.42,0
1752333703.2391117,1.534,1.428,0
1752333703.2500753,1.538,1.418,0
1752333703.2635593,1.531,1.42,0
1752333703.2721746,1.536,1.431,0
1752333703.2830825,1.533,1.412,0
1752333703.3000078,1.537,1.42,0
1752333703.305992,1.518,1.431,0
1752333703.3159652,1.539,1.441,0
1752333703.3274121,1.54,1.418,0
1752333703.3374505,1.536,1.42,0
1752333703.348991,1.545,1.431,0
1752333703.359994,1.534,1.439,0
1752333703.373993,1.532,1.431,0
1752333703.3829346,1.526,1.412,0
1752333703.3936992,1.537,1.425,0
1752333703.4045768,1.53,1.412,0
1752333703.4144402,1.532,1.425,0
1752333703.4265425,1.529,1.428,0
1752333703.4375038,1.531,1.426,0
1752333703.4493132,1.538,1.425,0
1752333703.4660156,1.534,1.42,0
1752333703.4729981,1.538,1.434,0
1752333703.4809766,1.53,1.42,0
1752333703.4920585,1.53,1.418,0
1752333703.502549,1.54,1.434,0
1752333703.513775,1.541,1.423,0
1752333703.5245054,1.54,1.422,0
1752333703.536305,1.538,1.431,0
1752333703.5465944,1.517,1.418,0
1752333703.5606122,1.558,1.438,0
1752333703.5696232,1.538,1.422,0
1752333703.5805566,1.534,1.444,0
1752333703.5915205,1.533,1.434,0
1752333703.601527,1.538,1.433,0
1752333703.6129014,1.537,1.42,0
1752333703.6243758,1.536,1.423,0
1752333703.634408,1.542,1.428,0
1752333703.6523383,1.522,1.413,0
1752333703.660362,1.538,1.428,0
1752333703.669373,1.53,1.43,0
1752333703.6783214,1.541,1.436,0
1752333703.690314,1.515,1.428,0
1752333703.700735,1.536,1.43,0
1752333703.7117376,1.521,1.415,0
1752333703.722891,1.538,1.42,0
1752333703.7343233,1.538,1.431,0
1752333703.747635,1.531,1.418,0
1752333703.7576396,1.533,1.431,0
1752333703.7665834,1.538,1.425,0
1752333703.7780411,1.534,1.423,0
1752333703.789438,1.538,1.42,0
1752333703.799998,1.548,1.425,0
1752333703.8116653,1.541,1.422,0
1752333703.8215067,1.529,1.415,0
1752333703.8415616,1.539,1.426,0
1752333703.850538,1.53,1.423,0
1752333703.8575191,1.542,1.428,0
1752333703.8659973,1.526,1.402,0
1752333703.8772821,1.537,1.433,0
1752333703.888668,1.537,1.413,0
1752333703.899183,1.534,1.434,0
1752333703.9103231,1.532,1.423,0
1752333703.9215806,1.541,1.418,0
1752333703.9336464,1.529,1.418,0
1752333703.9476085,1.537,1.418,0
1752333703.9535925,1.531,1.434,0
1752333703.967115,1.534,1.418,0
1752333703.9763677,1.539,1.428,0
1752333703.9870496,1.518,1.425,0
1752333703.9981022,1.522,1.425,0
1752333704.0089436,1.533,1.422,0
1752333704.028756,1.534,1.426,0
1752333704.0337424,1.538,1.418,0
1752333704.0437522,1.539,1.425,0
1752333704.0525732,1.534,1.422,0
1752333704.063538,1.529,1.42,0
1752333704.0752878,1.537,1.439,0
1752333704.0864873,1.534,1.415,0
1752333704.0972939,1.539,1.426,0
1752333704.1122541,1.538,1.426,0
1752333704.1192343,1.535,1.431,0
1752333704.1299057,1.533,1.423,0
1752333704.1414423,1.55,1.42,0
1752333704.151632,1.53,1.434,0
1752333704.162906,1.526,1.425,0
1752333704.173809,1.532,1.422,0
1752333704.1881812,1.542,1.422,0
1752333704.1961598,1.553,1.434,0
1752333704.2069035,1.528,1.423,0
1752333704.2186887,1.53,1.423,0
1752333704.229119,1.547,1.42,0
1752333704.2406466,1.539,1.431,0
1752333704.2507055,1.535,1.439,0
1752333704.2666945,1.529,1.417,0
1752333704.2716825,1.544,1.428,0
1752333704.2824705,1.534,1.431,0
1752333704.2945273,1.532,1.426,0
1752333704.3049338,1.534,1.423,0
1752333704.3158371,1.545,1.449,0
1752333704.3253984,1.533,1.418,0
1752333704.3386278,1.538,1.439,0
1752333704.3475723,1.541,1.436,0
1752333704.3565476,1.536,1.438,0
1752333704.3680942,1.534,1.422,0
1752333704.3783665,1.541,1.439,0
1752333704.3887658,1.537,1.433,0
1752333704.4005034,1.54,1.428,0
1752333704.4165995,1.537,1.415,0
1752333704.4225523,1.547,1.438,0
1752333704.431528,1.537,1.423,0
1752333704.4423325,1.536,1.436,0
1752333704.4529984,1.543,1.428,0
1752333704.4638207,1.545,1.436,0
1752333704.475631,1.534,1.441,0
1752333704.4864337,1.522,1.422,0
1752333704.5015652,1.537,1.436,0
1752333704.5075493,1.536,1.431,0
1752333704.517117,1.539,1.426,0
1752333704.527029,1.528,1.436,0
1752333704.5371568,1.535,1.433,0
1752333704.5472007,1.528,1.42,0
1752333704.5571458,1.539,1.447,0
1752333704.573416,1.53,1.425,0
1752333704.5793996,1.534,1.433,0
1752333704.5893736,1.535,1.407,0
1752333704.600124,1.532,1.41,0
1752333704.6115348,1.539,1.428,0
1752333704.6216083,1.542,1.413,0
1752333704.6324265,1.528,1.439,0
1752333704.641942,1.53,1.436,0
1752333704.6558673,1.541,1.425,0
1752333704.6648445,1.533,1.434,0
1752333704.6730537,1.517,1.426,0
1752333704.683579,1.535,1.428,0
1752333704.6938698,1.535,1.444,0
1752333704.7052512,1.531,1.42,0
1752333704.7165782,1.545,1.431,0
1752333704.7289286,1.528,1.436,0
1752333704.7418935,1.529,1.431,0
1752333704.746881,1.537,1.422,0
1752333704.755502,1.542,1.434,0
1752333704.766131,1.534,1.431,0
1752333704.7762802,1.552,1.439,0
1752333704.786331,1.556,1.428,0
1752333704.797192,1.53,1.431,0
1752333704.8099468,1.528,1.431,0
1752333704.821914,1.545,1.426,0
1752333704.8278978,1.545,1.436,0
1752333704.8374171,1.544,1.442,0
1752333704.8485224,1.525,1.425,0
1752333704.8578165,1.537,1.454,0
1752333704.8687692,1.538,1.436,0
1752333704.8851137,1.536,1.439,0
1752333704.8921173,1.536,1.444,0
1752333704.898079,1.538,1.431,0
1752333704.9083886,1.53,1.438,0
1752333704.9186084,1.535,1.436,0
1752333704.9283562,1.528,1.425,0
1752333704.9380352,1.542,1.431,0
1752333704.9480553,1.547,1.423,0
1752333704.9639542,1.523,1.449,0
1752333704.9699533,1.533,1.428,0
1752333704.9789407,1.546,1.434,0
1752333704.987463,1.523,1.431,0
1752333704.9978144,1.546,1.439,0
1752333705.0081563,1.523,1.426,0
1752333705.018133,1.542,1.431,0
1752333705.0280533,1.539,1.434,0
1752333705.0400856,1.535,1.431,0
1752333705.048003,1.53,1.425,0
1752333705.0579934,1.535,1.431,0
1752333705.068391,1.545,1.431,0
1752333705.0780709,1.532,1.446,0
1752333705.0887659,1.53,1.428,0
1752333705.0977366,1.543,1.444,0
1752333705.1084902,1.546,1.423,0
1752333705.1195817,1.535,1.433,0
1752333705.1325226,1.538,1.433,0
1752333705.1375082,1.536,1.454,0
1752333705.1476603,1.527,1.425,0
1752333705.1584525,1.536,1.433,0
1752333705.1678016,1.543,1.434,0
1752333705.1784985,1.545,1.439,0
1752333705.1875677,1.533,1.422,0
1752333705.1985621,1.535,1.431,0
1752333705.2095125,1.534,1.431,0
1752333705.2181053,1.532,1.446,0
1752333705.228391,1.521,1.425,0
1752333705.238282,1.528,1.426,0
1752333705.2476938,1.527,1.412,0
1752333705.258058,1.556,1.425,0
1752333705.2760093,1.53,1.433,0
1752333705.2839873,1.537,1.442,0
1752333705.288974,1.517,1.439,0
1752333705.2979505,1.538,1.441,0
1752333705.3077834,1.534,1.425,0
1752333705.3182538,1.541,1.446,0
1752333705.3282716,1.533,1.436,0
1752333705.33831,1.544,1.454,0
1752333705.3546326,1.536,1.426,0
1752333705.3616154,1.538,1.438,0
1752333705.3696206,1.525,1.431,0
1752333705.3780138,1.544,1.446,0
1752333705.3878276,1.535,1.438,0
1752333705.3978028,1.542,1.439,0
1752333705.4080653,1.533,1.425,0
1752333705.4182975,1.541,1.434,0
1752333705.4338033,1.529,1.426,0
1752333705.440785,1.536,1.433,0
1752333705.4487634,1.541,1.426,0
1752333705.4577723,1.53,1.438,0
1752333705.467999,1.536,1.426,0
1752333705.478347,1.538,1.449,0
1752333705.488123,1.534,1.449,0
1752333705.497491,1.53,1.434,0
1752333705.5079696,1.524,1.423,0
1752333705.5235708,1.53,1.433,0
1752333705.5315745,1.536,1.431,0
1752333705.5375702,1.538,1.436,0
1752333705.5475173,1.531,1.426,0
1752333705.558663,1.546,1.436,0
1752333705.5676227,1.531,1.425,0
1752333705.5789092,1.537,1.439,0
1752333705.5883765,1.524,1.444,0
1752333705.6043704,1.549,1.449,0
1752333705.6123433,1.531,1.425,0
1752333705.6183221,1.539,1.433,0
1752333705.6283386,1.519,1.412,0
1752333705.638086,1.541,1.425,0
1752333705.647996,1.53,1.43,0
1752333705.6575654,1.538,1.431,0
1752333705.6685975,1.549,1.43,0
1752333705.6834903,1.537,1.444,0
1752333705.6894746,1.537,1.425,0
1752333705.7014441,1.534,1.452,0
1752333705.7080367,1.549,1.436,0
1752333705.7180002,1.538,1.439,0
1752333705.7274504,1.533,1.426,0
1752333705.7387311,1.546,1.439,0
1752333705.7480383,1.533,1.446,0
1752333705.7584896,1.538,1.447,0
1752333705.7756898,1.532,1.433,0
1752333705.784665,1.538,1.436,0
1752333705.7896516,1.538,1.441,0
1752333705.7976317,1.544,1.438,0
1752333705.8075144,1.528,1.426,0
1752333705.817915,1.538,1.431,0
1752333705.828391,1.53,1.422,0
1752333705.8382144,1.538,1.428,0
1752333705.8549662,1.53,1.423,0
1752333705.8619208,1.535,1.433,0
1752333705.8689017,1.533,1.436,0
1752333705.8775554,1.545,1.434,0
1752333705.8877566,1.543,1.425,0
1752333705.8976364,1.533,1.451,0
1752333705.9074354,1.534,1.428,0
1752333705.9184763,1.539,1.436,0
1752333705.9334686,1.528,1.423,0
1752333705.9394236,1.538,1.431,0
1752333705.9483993,1.534,1.426,0
1752333705.9582102,1.536,1.438,0
1752333705.9682596,1.53,1.438,0
1752333705.9784615,1.535,1.449,0
1752333705.9883697,1.532,1.422,0
1752333705.9978797,1.539,1.433,0
1752333706.0083344,1.53,1.434,0
1752333706.0344563,1.538,1.434,0
1752333706.0344563,1.525,1.425,0
1752333706.04044,1.535,1.441,0
1752333706.0484188,1.525,1.425,0
1752333706.0573928,1.538,1.433,0
1752333706.067485,1.53,1.444,0
1752333706.0780199,1.536,1.434,0
1752333706.0878072,1.533,1.423,0
1752333706.0984569,1.544,1.433,0
1752333706.107507,1.532,1.423,0
1752333706.1202095,1.53,1.451,0
1752333706.130183,1.53,1.436,0
1752333706.1380763,1.531,1.426,0
1752333706.1481376,1.539,1.415,0
1752333706.158561,1.534,1.446,0
1752333706.168659,1.544,1.43,0
1752333706.1782157,1.538,1.433,0
1752333706.1882734,1.529,1.425,0
1752333706.1992974,1.542,1.438,0
1752333706.2092516,1.535,1.433,0
1752333706.2181964,1.538,1.446,0
1752333706.2284462,1.526,1.426,0
1752333706.2379856,1.542,1.434,0
1752333706.2484949,1.542,1.439,0
1752333706.2585258,1.536,1.431,0
1752333706.2733903,1.543,1.446,0
1752333706.2823668,1.534,1.431,0
1752333706.290346,1.522,1.422,0
1752333706.2980795,1.536,1.431,0
1752333706.307375,1.531,1.433,0
1752333706.318802,1.538,1.446,0
1752333706.3274503,1.52,1.43,0
1752333706.3380616,1.542,1.449,0
1752333706.3555374,1.538,1.431,0
1752333706.3615217,1.534,1.441,0
1752333706.3685033,1.528,1.434,0
1752333706.377489,1.536,1.431,0
1752333706.3880036,1.531,1.425,0
1752333706.398175,1.539,1.433,0
1752333706.4085464,1.53,1.431,0
1752333706.418292,1.535,1.457,0
1752333706.4330683,1.538,1.433,0
1752333706.4410706,1.539,1.436,0
1752333706.4490144,1.533,1.425,0
1752333706.4578462,1.543,1.452,0
1752333706.4680183,1.544,1.431,0
1752333706.477953,1.537,1.438,0
1752333706.488278,1.529,1.441,0
1752333706.4985855,1.542,1.441,0
1752333706.5076196,1.531,1.444,0
1752333706.5247984,1.53,1.433,0
1752333706.5321474,1.525,1.438,0
1752333706.5381317,1.537,1.436,0
1752333706.547952,1.532,1.425,0
1752333706.5587506,1.546,1.451,0
1752333706.568043,1.535,1.434,0
1752333706.5774195,1.544,1.434,0
1752333706.5885417,1.535,1.439,0
1752333706.6011605,1.538,1.433,0
1752333706.6091392,1.533,1.426,0
1752333706.6181152,1.533,1.446,0
1752333706.6276698,1.525,1.415,0
1752333706.638494,1.532,1.433,0
1752333706.6479077,1.53,1.442,0
1752333706.658023,1.534,1.441,0
1752333706.6682103,1.538,1.422,0
1752333706.6805067,1.527,1.441,0
1752333706.6884856,1.539,1.431,0
1752333706.6982048,1.543,1.431,0
1752333706.7076318,1.528,1.444,0
1752333706.7179532,1.542,1.434,0
1752333706.728028,1.533,1.444,0
1752333706.738358,1.529,1.438,0
1752333706.7484074,1.534,1.428,0
1752333706.7583847,1.542,1.434,0
1752333706.770352,1.53,1.425,0
1752333706.7773333,1.535,1.457,0
1752333706.7887337,1.532,1.423,0
1752333706.7982936,1.535,1.449,0
1752333706.8079305,1.532,1.444,0
1752333706.8173604,1.534,1.433,0
1752333706.8280418,1.536,1.444,0
1752333706.843015,1.538,1.449,0
1752333706.8499856,1.544,1.444,0
1752333706.8580368,1.537,1.446,0
1752333706.8686206,1.526,1.422,0
1752333706.8783097,1.541,1.447,0
1752333706.8875706,1.525,1.423,0
1752333706.8984995,1.541,1.438,0
1752333706.916102,1.528,1.428,0
1752333706.922076,1.541,1.433,0
1752333706.9300544,1.534,1.425,0
1752333706.9380422,1.538,1.422,0
1752333706.9480872,1.526,1.413,0
1752333706.9584546,1.538,1.438,0
1752333706.9684997,1.53,1.422,0
1752333706.977376,1.539,1.446,0
1752333706.988297,1.533,1.425,0
1752333707.0014818,1.545,1.444,0
1752333707.013451,1.529,1.426,0
1752333707.0194387,1.53,1.426,0
1752333707.027882,1.544,1.425,0
1752333707.038461,1.532,1.426,0
1752333707.0474396,1.53,1.423,0
1752333707.0584447,1.536,1.436,0
1752333707.068258,1.528,1.431,0
1752333707.0859032,1.544,1.444,0
1752333707.0928853,1.531,1.428,0
1752333707.100864,1.545,1.439,0
1752333707.107845,1.523,1.425,0
1752333707.1180787,1.542,1.439,0
1752333707.1281002,1.534,1.446,0
1752333707.1374469,1.538,1.449,0
1752333707.1478848,1.534,1.449,0
1752333707.1655939,1.542,1.434,0
1752333707.1715767,1.525,1.446,0
1752333707.1796236,1.53,1.451,0
1752333707.1876762,1.531,1.433,0
1752333707.1982043,1.533,1.428,0
1752333707.208772,1.528,1.426,0
1752333707.218685,1.535,1.434,0
1752333707.228176,1.525,1.425,0
1752333707.2386155,1.538,1.446,0
1752333707.248542,1.53,1.436,0
1752333707.2592874,1.538,1.433,0
1752333707.2702575,1.528,1.42,0
1752333707.2782068,1.538,1.451,0
1752333707.2885056,1.537,1.433,0
1752333707.29786,1.538,1.434,0
1752333707.3086805,1.53,1.433,0
1752333707.3180234,1.539,1.433,0
1752333707.3282068,1.529,1.43,0
1752333707.3441675,1.533,1.449,0
1752333707.3501523,1.53,1.428,0
1752333707.3580778,1.534,1.434,0
1752333707.3684514,1.538,1.433,0
1752333707.3781064,1.534,1.441,0
1752333707.3886924,1.532,1.425,0
1752333707.3978684,1.538,1.439,0
1752333707.4165702,1.522,1.436,0
1752333707.4179444,1.542,1.439,0
1752333707.4299123,1.531,1.436,0
1752333707.4380996,1.536,1.434,0
1752333707.4478602,1.53,1.442,0
1752333707.4587078,1.537,1.436,0
1752333707.468527,1.528,1.428,0
1752333707.4782124,1.542,1.433,0
1752333707.4934688,1.53,1.413,0
1752333707.5004516,1.543,1.441,0
1752333707.509426,1.531,1.418,0
1752333707.5178485,1.538,1.438,0
1752333707.5282145,1.534,1.444,0
1752333707.5387123,1.55,1.438,0
1752333707.5481462,1.532,1.438,0
1752333707.5585997,1.535,1.439,0
1752333707.5704832,1.539,1.431,0
1752333707.5854461,1.543,1.444,0
1752333707.5894332,1.534,1.423,0
1752333707.5980172,1.55,1.438,0
1752333707.6086657,1.529,1.423,0
1752333707.6179807,1.538,1.436,0
1752333707.6284685,1.533,1.426,0
1752333707.63851,1.534,1.452,0
1752333707.6499314,1.519,1.433,0
1752333707.6639013,1.539,1.451,0
1752333707.6688814,1.528,1.438,0
1752333707.6781986,1.533,1.451,0
1752333707.6885726,1.532,1.436,0
1752333707.6976957,1.552,1.441,0
1752333707.7086208,1.534,1.438,0
1752333707.7185044,1.535,1.43,0
1752333707.7338974,1.528,1.425,0
1752333707.7388837,1.538,1.454,0
1752333707.747871,1.533,1.446,0
1752333707.7585526,1.533,1.447,0
1752333707.7686203,1.529,1.423,0
1752333707.7781792,1.537,1.441,0
1752333707.788609,1.528,1.444,0
1752333707.802923,1.531,1.446,0
1752333707.8099034,1.53,1.428,0
1752333707.8188796,1.548,1.436,0
1752333707.8278375,1.536,1.436,0
1752333707.8386385,1.554,1.446,0
1752333707.8473468,1.531,1.425,0
1752333707.8587937,1.538,1.438,0
1752333707.8681424,1.54,1.426,0
1752333707.8842483,1.538,1.459,0
1752333707.8902335,1.522,1.438,0
1752333707.898211,1.542,1.438,0
1752333707.9080448,1.53,1.436,0
1752333707.9186327,1.535,1.438,0
1752333707.9281719,1.542,1.433,0
1752333707.9386516,1.542,1.433,0
1752333707.9477365,1.524,1.423,0
1752333707.9611564,1.538,1.434,0
1752333707.9681504,1.529,1.428,0
1752333707.978111,1.538,1.454,0
1752333707.988397,1.53,1.423,0
1752333707.9985638,1.532,1.451,0
1752333708.0087314,1.521,1.428,0
1752333708.017615,1.538,1.433,0
1752333708.0281556,1.53,1.428,0
1752333708.0395334,1.537,1.428,0
1752333708.0495062,1.528,1.42,0
1752333708.0585265,1.542,1.449,0
1752333708.0674949,1.536,1.423,0
1752333708.0781515,1.532,1.433,0
1752333708.088105,1.537,1.425,0
1752333708.0985208,1.54,1.441,0
1752333708.1085818,1.526,1.439,0
1752333708.1179748,1.537,1.438,0
1752333708.1299431,1.532,1.423,0
1752333708.1389518,1.554,1.444,0
1752333708.1485586,1.536,1.428,0
1752333708.158646,1.545,1.434,0
1752333708.167663,1.536,1.436,0
1752333708.1781025,1.542,1.441,0
1752333708.1885474,1.534,1.431,0
1752333708.2025273,1.541,1.441,0
1752333708.2084966,1.531,1.423,0
1752333708.2182417,1.541,1.434,0
1752333708.2281547,1.525,1.434,0
1752333708.2385676,1.534,1.438,0
1752333708.248625,1.541,1.431,0
1752333708.2587485,1.534,1.447,0
1752333708.274521,1.534,1.428,0
1752333708.2815018,1.536,1.449,0
1752333708.2884843,1.515,1.42,0
1752333708.2982118,1.535,1.447,0
1752333708.3081532,1.542,1.428,0
1752333708.3184297,1.535,1.431,0
1752333708.3284364,1.529,1.422,0
1752333708.338474,1.542,1.438,0
1752333708.3558335,1.53,1.438,0
1752333708.3618183,1.531,1.447,0
1752333708.367808,1.53,1.426,0
1752333708.3778174,1.547,1.446,0
1752333708.388321,1.525,1.425,0
1752333708.3985612,1.535,1.439,0
1752333708.4085705,1.538,1.431,0
1752333708.4185774,1.53,1.438,0
1752333708.4340727,1.53,1.423,0
1752333708.440057,1.535,1.439,0
1752333708.4490333,1.534,1.425,0
1752333708.457656,1.523,1.439,0
1752333708.468736,1.531,1.441,0
1752333708.4781508,1.539,1.451,0
1752333708.4887273,1.529,1.441,0
1752333708.4985347,1.538,1.431,0
1752333708.51092,1.525,1.446,0
1752333708.5188985,1.538,1.433,0
1752333708.52785,1.537,1.434,0
1752333708.5386782,1.541,1.438,0
1752333708.5486438,1.53,1.439,0
1752333708.55795,1.534,1.434,0
1752333708.5684621,1.528,1.423,0
1752333708.5784721,1.534,1.451,0
1752333708.5889893,1.53,1.446,0
1752333708.6019387,1.538,1.434,0
1752333708.6079617,1.537,1.449,0
1752333708.6184506,1.534,1.444,0
1752333708.6280227,1.53,1.426,0
1752333708.6383827,1.537,1.439,0
1752333708.6485362,1.531,1.428,0
1752333708.6586287,1.545,1.452,0
1752333708.6715403,1.533,1.426,0
1752333708.679519,1.531,1.434,0
1752333708.687611,1.529,1.428,0
1752333708.6982234,1.544,1.436,0
1752333708.7081742,1.529,1.431,0
1752333708.7187958,1.532,1.444,0
1752333708.7283306,1.536,1.438,0
1752333708.7385402,1.543,1.433,0
1752333708.750511,1.535,1.425,0
1752333708.758491,1.55,1.454,0
1752333708.7683425,1.534,1.426,0
1752333708.7783484,1.545,1.433,0
1752333708.7886271,1.529,1.441,0
1752333708.798006,1.542,1.439,0
1752333708.808421,1.522,1.434,0
1752333708.8241518,1.549,1.433,0
1752333708.8301356,1.53,1.441,0
1752333708.8391354,1.531,1.433,0
1752333708.8480978,1.53,1.436,0
1752333708.8588142,1.542,1.457,0
1752333708.8687932,1.531,1.441,0
1752333708.8781226,1.54,1.452,0
1752333708.8885927,1.524,1.426,0
1752333708.901557,1.537,1.449,0
1752333708.9085388,1.529,1.428,0
1752333708.9180126,1.537,1.426,0
1752333708.9281409,1.525,1.418,0
1752333708.938789,1.538,1.431,0
1752333708.9486,1.53,1.422,0
1752333708.9587126,1.542,1.434,0
1752333708.9683228,1.532,1.428,0
1752333708.9789038,1.541,1.447,0
1752333708.990842,1.533,1.423,0
1752333708.998242,1.548,1.436,0
1752333709.008663,1.533,1.426,0
1752333709.0182936,1.549,1.439,0
1752333709.027991,1.53,1.425,0
1752333709.0379674,1.544,1.451,0
1752333709.0476892,1.532,1.426,0
1752333709.0616512,1.53,1.452,0
1752333709.0686324,1.525,1.423,0
1752333709.0776742,1.542,1.446,0
1752333709.0876558,1.522,1.423,0
1752333709.0980315,1.538,1.441,0
1752333709.108006,1.524,1.439,0
1752333709.1185498,1.534,1.441,0
1752333709.1352432,1.53,1.423,0
1752333709.1412225,1.538,1.433,0
1752333709.1492069,1.528,1.438,0
1752333709.158269,1.55,1.433,0
1752333709.1682885,1.535,1.426,0
1752333709.1780083,1.541,1.438,0
1752333709.1884348,1.533,1.436,0
1752333709.1996942,1.537,1.444,0
1752333709.2136593,1.53,1.431,0
1752333709.2196345,1.552,1.439,0
1752333709.2296069,1.539,1.434,0
1752333709.2381022,1.534,1.436,0
1752333709.2478912,1.531,1.425,0
1752333709.2581632,1.552,1.441,0
1752333709.2686586,1.528,1.438,0
1752333709.2776515,1.542,1.441,0
1752333709.2890244,1.536,1.423,0
1752333709.2980077,1.532,1.436,0
1752333709.3079414,1.541,1.438,0
1752333709.3184369,1.538,1.434,0
1752333709.3280492,1.538,1.43,0
1752333709.3387272,1.536,1.446,0
1752333709.3480942,1.527,1.422,0
1752333709.3582747,1.536,1.439,0
1752333709.3685951,1.53,1.425,0
1752333709.3835552,1.542,1.451,0
1752333709.3875446,1.529,1.425,0
1752333709.3978834,1.537,1.444,0
1752333709.408322,1.525,1.423,0
1752333709.418725,1.551,1.438,0
1752333709.4279416,1.524,1.449,0
1752333709.438506,1.537,1.433,0
1752333709.449434,1.528,1.426,0
1752333709.4594073,1.538,1.441,0
1752333709.4684165,1.537,1.438,0
1752333709.478421,1.542,1.434,0
1752333709.488544,1.539,1.425,0
1752333709.4980552,1.538,1.451,0
1752333709.508119,1.53,1.433,0
1752333709.51771,1.538,1.434,0
1752333709.528683,1.533,1.444,0
1752333709.5396614,1.538,1.449,0
1752333709.5476322,1.525,1.423,0
1752333709.5578747,1.534,1.451,0
1752333709.5682487,1.529,1.422,0
1752333709.5776565,1.538,1.451,0
1752333709.5876603,1.537,1.439,0
1752333709.6048965,1.535,1.455,0
1752333709.6118872,1.53,1.433,0
1752333709.617862,1.542,1.436,0
1752333709.6274889,1.53,1.431,0
1752333709.6385171,1.539,1.441,0
1752333709.6474738,1.532,1.434,0
1752333709.6580088,1.536,1.438,0
1752333709.668072,1.538,1.428,0
1752333709.684668,1.541,1.431,0
1752333709.6916502,1.53,1.417,0
1752333709.698936,1.55,1.441,0
1752333709.7080204,1.519,1.436,0
1752333709.7181556,1.534,1.433,0
1752333709.7277744,1.529,1.422,0
1752333709.7380493,1.538,1.441,0
1752333709.7473717,1.521,1.423,0
1752333709.7582006,1.547,1.441,0
1752333709.7681537,1.53,1.41,0
1752333709.7831285,1.545,1.433,0
1752333709.7890997,1.525,1.422,0
1752333709.7980871,1.535,1.415,1
1752333709.8086555,1.528,1.407,1
1752333709.8187869,1.548,1.423,1
1752333709.8280041,1.533,1.413,1
1752333709.8386261,1.548,1.449,1
1752333709.8526006,1.525,1.422,1
1752333709.85959,1.544,1.449,1
1752333709.8685696,1.574,1.439,1
1752333709.8780777,1.5,1.434,1
1752333709.8887253,1.55,1.434,1
1752333709.8981185,1.52,1.431,1
1752333709.9086237,1.517,1.422,1
1752333709.918609,1.569,1.441,1
1752333709.9341667,1.536,1.438,1
1752333709.9401536,1.572,1.446,1
1752333709.9491286,1.476,1.418,1
1752333709.9582987,1.472,1.425,1
1752333709.968469,1.514,1.42,1
1752333709.977923,1.487,1.425,1
1752333709.988333,1.525,1.42,1
1752333709.9985425,1.584,1.457,1
1752333710.0095341,1.55,1.433,1
1752333710.0205061,1.53,1.434,1
1752333710.0275111,1.551,1.434,1
1752333710.038469,1.568,1.457,1
1752333710.0485766,1.54,1.422,1
1752333710.0586715,1.545,1.457,1
1752333710.0684998,1.518,1.433,1
1752333710.077863,1.546,1.441,1
1752333710.0890222,1.557,1.426,1
1752333710.1009893,1.513,1.449,1
1752333710.1086864,1.53,1.444,1
1752333710.1184845,1.522,1.439,1
1752333710.1278775,1.559,1.441,1
1752333710.138421,1.548,1.436,1
1752333710.1483552,1.522,1.426,1
1752333710.1584556,1.567,1.442,1
1752333710.1689508,1.539,1.438,1
1752333710.1799061,1.51,1.446,1
1752333710.188669,1.507,1.42,1
1752333710.1983452,1.571,1.439,1
1752333710.2081716,1.526,1.425,1
1752333710.218667,1.546,1.446,1
1752333710.2279484,1.51,1.438,1
1752333710.2386718,1.537,1.439,1
1752333710.248649,1.544,1.426,1
1752333710.2586222,1.447,1.426,1
1752333710.268761,1.584,1.433,1
1752333710.2782083,1.517,1.447,1
1752333710.287958,1.53,1.431,1
1752333710.298755,1.402,1.431,1
1752333710.3087282,1.554,1.433,1
1752333710.3185267,1.538,1.444,1
1752333710.3314285,1.553,1.431,1
1752333710.3384094,1.402,1.428,1
1752333710.348115,1.529,1.415,1
1752333710.3584146,1.556,1.446,1
1752333710.3682423,1.509,1.436,1
1752333710.3775506,1.542,1.436,1
1752333710.3883119,1.538,1.425,1
1752333710.4046416,1.517,1.433,1
1752333710.411623,1.53,1.434,1
1752333710.4188774,1.528,1.438,1
1752333710.427647,1.522,1.438,1
1752333710.438729,1.561,1.434,1
1752333710.448002,1.549,1.438,1
1752333710.4585814,1.528,1.438,1
1752333710.4684916,1.536,1.436,1
1752333710.4849153,1.554,1.436,1
1752333710.4908943,1.492,1.433,1
1752333710.499871,1.505,1.434,1
1752333710.5078588,1.534,1.438,1
1752333710.518628,1.559,1.433,1
1752333710.5278008,1.549,1.438,1
1752333710.5386605,1.532,1.434,1
1752333710.5485375,1.55,1.438,1
1752333710.5629325,1.513,1.431,1
1752333710.5689406,1.542,1.422,1
1752333710.579914,1.523,1.436,1
1752333710.5880823,1.48,1.426,1
1752333710.5986004,1.55,1.438,1
1752333710.608507,1.543,1.431,1
1752333710.6181374,1.608,1.452,1
1752333710.6279852,1.445,1.431,1
1752333710.6424375,1.483,1.423,1
1752333710.648431,1.525,1.425,1
1752333710.6573973,1.513,1.451,1
1752333710.6684506,1.59,1.434,1
1752333710.6780596,1.5,1.446,1
1752333710.6887863,1.546,1.431,1
1752333710.6988163,1.526,1.426,1
1752333710.708496,1.55,1.447,1
1752333710.7212534,1.518,1.426,1
1752333710.7282422,1.513,1.426,1
1752333710.738208,1.544,1.434,1
1752333710.7485576,1.55,1.433,1
1752333710.758364,1.531,1.434,1
1752333710.7687871,1.524,1.422,1
1752333710.7782547,1.544,1.431,1
1752333710.788641,1.539,1.434,1
1752333710.79899,1.599,1.451,1
1752333710.8099623,1.537,1.426,1
1752333710.8187084,1.547,1.451,1
1752333710.827866,1.534,1.442,1
1752333710.8378234,1.521,1.444,1
1752333710.8484945,1.558,1.434,1
1752333710.8582647,1.55,1.439,1
1752333710.8686278,1.545,1.438,1
1752333710.8791344,1.581,1.444,1
1752333710.890104,1.49,1.422,1
1752333710.898432,1.558,1.452,1
1752333710.9081292,1.538,1.422,1
1752333710.9184728,1.486,1.425,1
1752333710.927864,1.454,1.415,1
1752333710.9387224,1.438,1.423,1
1752333710.9480908,1.569,1.439,1
1752333710.9620576,1.438,1.41,1
1752333710.9683437,1.563,1.439,1
1752333710.977956,1.534,1.434,1
1752333710.9886627,1.492,1.428,1
1752333710.9986508,1.602,1.451,1
1752333711.0085015,1.552,1.423,1
1752333711.0182836,1.546,1.444,1
1752333711.0358255,1.542,1.423,1
1752333711.0427735,1.48,1.434,1
1752333711.0487833,1.543,1.428,1
1752333711.0580964,1.537,1.425,1
1752333711.0682013,1.519,1.42,1
1752333711.0782092,1.556,1.441,1
1752333711.0880911,1.544,1.423,1
1752333711.0984774,1.564,1.441,1
1752333711.115133,1.517,1.413,1
1752333711.1218894,1.537,1.431,1
1752333711.1278734,1.509,1.434,1
1752333711.1382976,1.532,1.431,1
1752333711.1477153,1.521,1.428,1
1752333711.1585703,1.55,1.439,1
1752333711.168294,1.534,1.431,1
1752333711.1780193,1.485,1.425,1
1752333711.1908293,1.558,1.425,1
1752333711.1978114,1.537,1.433,1
1752333711.2087874,1.524,1.439,1
1752333711.2180374,1.488,1.433,1
1752333711.227429,1.558,1.433,1
1752333711.2384348,1.621,1.451,1
1752333711.2478678,1.535,1.423,1
1752333711.258278,1.494,1.425,1
1752333711.2696676,1.633,1.444,1
1752333711.282634,1.499,1.436,1
1752333711.2876446,1.533,1.428,1
1752333711.2984447,1.528,1.436,1
1752333711.308789,1.525,1.433,1
1752333711.318785,1.541,1.455,1
1752333711.3277996,1.523,1.436,1
1752333711.3385284,1.552,1.451,1
1752333711.3501203,1.554,1.434,1
1752333711.3600948,1.517,1.433,1
1752333711.3680723,1.523,1.423,1
1752333711.3777356,1.541,1.428,1
1752333711.3887255,1.536,1.428,1
1752333711.3973496,1.486,1.431,1
1752333711.4081044,1.525,1.422,1
1752333711.418029,1.522,1.428,1
1752333711.4325097,1.534,1.423,1
1752333711.4385147,1.55,1.434,1
1752333711.4474885,1.53,1.425,1
1752333711.458615,1.55,1.446,1
1752333711.4684305,1.525,1.431,1
1752333711.4783518,1.554,1.436,1
1752333711.4884074,1.527,1.433,1
1752333711.498528,1.564,1.449,1
1752333711.5124934,1.538,1.438,1
1752333711.5184765,1.546,1.439,1
1752333711.5278103,1.541,1.444,1
1752333711.5387547,1.554,1.439,1
1752333711.5475707,1.56,1.418,1
1752333711.5584724,1.517,1.418,1
1752333711.5685399,1.586,1.428,1
1752333711.5844183,1.52,1.418,1
1752333711.5913973,1.558,1.407,1
1752333711.5983539,1.571,1.441,1
1752333711.6077201,1.53,1.438,1
1752333711.6180258,1.534,1.428,1
1752333711.6280305,1.584,1.447,1
1752333711.6384258,1.506,1.439,1
1752333711.647339,1.563,1.436,1
1752333711.6644454,1.455,1.438,1
1752333711.6704288,1.549,1.439,1
1752333711.680403,1.535,1.433,1
1752333711.6874166,1.513,1.418,1
1752333711.6980517,1.547,1.434,1
1752333711.7085142,1.546,1.433,1
1752333711.7177885,1.557,1.439,1
1752333711.727614,1.533,1.422,1
1752333711.740517,1.509,1.431,1
1752333711.7484953,1.539,1.444,1
1752333711.757471,1.531,1.422,1
1752333711.767975,1.543,1.422,1
1752333711.7779813,1.538,1.441,1
1752333711.7884483,1.541,1.436,1
1752333711.7976918,1.53,1.433,1
1752333711.8080432,1.551,1.426,1
1752333711.820002,1.53,1.439,1
1752333711.83297,1.503,1.431,1
1752333711.837955,1.531,1.438,1
1752333711.8480587,1.541,1.441,1
1752333711.8587418,1.53,1.446,1
1752333711.86877,1.507,1.413,1
1752333711.8777375,1.538,1.433,1
1752333711.8882246,1.53,1.439,1
1752333711.9000409,1.562,1.451,1
1752333711.9109857,1.577,1.425,1
1752333711.9180043,1.489,1.428,1
1752333711.9274893,1.546,1.428,1
1752333711.9380038,1.561,1.433,1
1752333711.9482903,1.491,1.422,1
1752333711.9585018,1.534,1.434,1
1752333711.9685047,1.64,1.444,1
1752333711.9789658,1.509,1.434,1
1752333711.9919317,1.482,1.409,1
1752333711.997916,1.511,1.423,1
1752333712.008102,1.583,1.428,1
1752333712.0185554,1.517,1.428,1
1752333712.0277116,1.53,1.425,1
1752333712.038381,1.538,1.439,1
1752333712.0484538,1.539,1.433,1
1752333712.0634177,1.538,1.438,1
1752333712.0684044,1.517,1.423,1
1752333712.078076,1.556,1.434,1
1752333712.0882246,1.55,1.433,1
1752333712.098493,1.535,1.439,1
1752333712.1085827,1.513,1.439,1
1752333712.1186543,1.545,1.439,1
1752333712.135357,1.556,1.426,1
1752333712.1423683,1.555,1.436,1
1752333712.1503174,1.537,1.426,1
1752333712.1582952,1.548,1.441,1
1752333712.1683357,1.517,1.423,1
1752333712.1783407,1.525,1.438,1
1752333712.1882703,1.555,1.444,1
1752333712.1984613,1.55,1.439,1
1752333712.21469,1.516,1.418,1
1752333712.220674,1.539,1.447,1
1752333712.2286544,1.55,1.426,1
1752333712.2380414,1.539,1.431,1
1752333712.24811,1.523,1.422,1
1752333712.2587113,1.543,1.436,1
1752333712.2687871,1.509,1.433,1
1752333712.2783065,1.562,1.447,1
1752333712.2935874,1.53,1.425,1
1752333712.2998097,1.555,1.452,1
1752333712.308786,1.535,1.428,1
1752333712.3180697,1.542,1.433,1
1752333712.328079,1.539,1.428,1
1752333712.3386276,1.559,1.433,1
1752333712.3481183,1.436,1.412,1
1752333712.35809,1.593,1.444,1
1752333712.3709512,1.451,1.396,1
1752333712.3779323,1.575,1.454,1
1752333712.3879058,1.443,1.412,1
1752333712.39865,1.488,1.434,1
1752333712.4078388,1.571,1.436,1
1752333712.418322,1.559,1.428,1
1752333712.427905,1.509,1.425,1
1752333712.438369,1.55,1.431,1
1752333712.4496777,1.519,1.423,1
1752333712.4606245,1.544,1.441,1
1752333712.468081,1.545,1.426,1
1752333712.4782794,1.548,1.428,1
1752333712.4877646,1.53,1.42,1
1752333712.498293,1.539,1.428,1
1752333712.508551,1.546,1.426,1
1752333712.5186036,1.556,1.446,1
1752333712.532588,1.519,1.42,1
1752333712.5385733,1.534,1.426,1
1752333712.54803,1.55,1.422,1
1752333712.5577512,1.518,1.425,1
1752333712.568187,1.564,1.415,1
1752333712.5782402,1.542,1.413,1
1752333712.5886488,1.524,1.42,1
1752333712.604714,1.545,1.434,1
1752333712.6117418,1.531,1.418,1
1752333712.6197262,1.548,1.426,1
1752333712.628223,1.53,1.425,1
1752333712.6374676,1.547,1.436,1
1752333712.648108,1.551,1.438,1
1752333712.6586614,1.523,1.439,1
1752333712.6685174,1.569,1.431,1
1752333712.6839023,1.592,1.439,1
1752333712.6891148,1.577,1.43,1
1752333712.6990876,1.507,1.415,1
1752333712.7081506,1.618,1.439,1
1752333712.7187793,1.516,1.439,1
1752333712.7276235,1.442,1.422,1
1752333712.7386413,1.568,1.446,1
1752333712.748235,1.575,1.428,1
1752333712.7628887,1.492,1.422,1
1752333712.7698953,1.585,1.425,1
1752333712.7788846,1.583,1.449,1
1752333712.788069,1.511,1.417,1
1752333712.798499,1.533,1.428,1
1752333712.808054,1.535,1.422,1
1752333712.8183956,1.518,1.428,1
1752333712.8284972,1.538,1.434,1
1752333712.8406885,1.531,1.425,1
1752333712.8486671,1.541,1.423,1
1752333712.857643,1.523,1.426,1
1752333712.86879,1.512,1.431,1
1752333712.8774989,1.557,1.439,1
1752333712.8887174,1.543,1.423,1
1752333712.8985145,1.558,1.428,1
1752333712.9085505,1.525,1.42,1
1752333712.9189107,1.53,1.446,1
1752333712.9298942,1.534,1.418,1
1752333712.9387045,1.547,1.426,1
1752333712.9487123,1.531,1.415,1
1752333712.958723,1.567,1.441,1
1752333712.968787,1.511,1.434,1
1752333712.9781253,1.522,1.426,1
1752333712.9885924,1.519,1.415,1
1752333713.001559,1.542,1.439,1
1752333713.0085404,1.517,1.417,1
1752333713.018097,1.542,1.428,1
1752333713.0276592,1.547,1.436,1
1752333713.0386953,1.547,1.431,1
1752333713.0486994,1.539,1.422,1
1752333713.0587056,1.545,1.446,1
1752333713.0738835,1.555,1.418,1
1752333713.0798771,1.541,1.426,1
1752333713.087846,1.571,1.438,1
1752333713.098112,1.478,1.428,1
1752333713.1087255,1.557,1.433,1
1752333713.11853,1.589,1.454,1
1752333713.1279783,1.558,1.426,1
1752333713.1385715,1.488,1.415,1
1752333713.1500874,1.567,1.433,1
1752333713.1580648,1.513,1.425,1
1752333713.1680384,1.485,1.423,1
1752333713.177888,1.564,1.444,1
1752333713.1884575,1.564,1.418,1
1752333713.1981273,1.562,1.425,1
1752333713.2085488,1.519,1.418,1
1752333713.218535,1.532,1.425,1
1752333713.2287667,1.526,1.422,1
1752333713.2407393,1.534,1.426,1
1752333713.2481122,1.542,1.428,1
1752333713.258516,1.517,1.425,1
1752333713.2686005,1.517,1.434,1
1752333713.2779195,1.528,1.423,1
1752333713.2881615,1.554,1.431,1
1752333713.2983727,1.539,1.426,1
1752333713.3143625,1.532,1.422,1
1752333713.3213434,1.515,1.431,1
1752333713.3280997,1.555,1.439,1
1752333713.338168,1.545,1.434,1
1752333713.348118,1.536,1.422,1
1752333713.3585355,1.546,1.446,1
1752333713.3686152,1.525,1.431,1
1752333713.3860734,1.545,1.447,1
1752333713.3920562,1.517,1.415,1
1752333713.3980398,1.534,1.42,1
1752333713.408299,1.552,1.439,1
1752333713.4186347,1.536,1.431,1
1752333713.4278367,1.571,1.422,1
1752333713.4386086,1.498,1.433,1
1752333713.448478,1.571,1.42,1
1752333713.4622908,1.629,1.454,1
1752333713.469272,1.513,1.415,1
1752333713.4792454,1.634,1.457,1
1752333713.4880545,1.642,1.434,1
1752333713.4985247,1.561,1.436,1
1752333713.5087342,1.588,1.423,1
1752333713.518628,1.613,1.452,1
1752333713.5283265,1.559,1.436,1
1752333713.5411246,1.566,1.444,1
1752333713.5491273,1.466,1.426,1
1752333713.5581067,1.546,1.438,1
1752333713.5686204,1.543,1.428,1
1752333713.5782547,1.53,1.43,1
1752333713.5887432,1.542,1.425,1
1752333713.5979357,1.542,1.446,1
1752333713.6084137,1.535,1.42,1
1752333713.6189632,1.536,1.428,1
1752333713.6314588,1.534,1.417,1
1752333713.637443,1.552,1.436,1
1752333713.648476,1.525,1.417,1
1752333713.6584966,1.538,1.447,1
1752333713.673397,1.519,1.431,1
1752333713.6829922,1.538,1.407,1
1752333713.6986496,1.524,1.412,1
1752333713.7046425,1.502,1.412,1
1752333713.7145853,1.53,1.42,1
1752333713.7229939,1.548,1.426,1
1752333713.732995,1.514,1.431,1
1752333713.7429771,1.559,1.438,1
1752333713.7530973,1.541,1.426,1
1752333713.7626371,1.502,1.425,1
1752333713.775327,1.525,1.418,1
1752333713.7833061,1.56,1.438,1
1752333713.792306,1.423,1.415,1
1752333713.8029633,1.478,1.413,1
1752333713.8130407,1.51,1.412,1
1752333713.8230202,1.459,1.418,1
1752333713.833448,1.592,1.439,1
1752333713.843452,1.553,1.434,1
1752333713.8536985,1.522,1.42,1
1752333713.8636763,1.523,1.425,1
1752333713.8731132,1.53,1.423,1
1752333713.8831537,1.541,1.439,1
1752333713.8931947,1.555,1.431,1
1752333713.9032462,1.55,1.428,1
1752333713.912672,1.552,1.422,1
1752333713.922962,1.528,1.423,1
1752333713.9339359,1.555,1.426,1
1752333713.9449072,1.532,1.431,1
1752333713.9529855,1.57,1.439,1
1752333713.9629824,1.525,1.426,1
1752333713.9734097,1.528,1.433,1
1752333713.9831243,1.537,1.439,1
1752333713.9931712,1.546,1.436,1
1752333714.0106127,1.515,1.423,1
1752333714.0155997,1.53,1.431,1
1752333714.023579,1.523,1.441,1
1752333714.0325634,1.538,1.418,1
1752333714.0433996,1.534,1.413,1
1752333714.0529587,1.545,1.409,1
1752333714.062925,1.538,1.42,1
1752333714.073098,1.541,1.436,1
1752333714.0875976,1.526,1.433,1
1752333714.0945766,1.53,1.42,1
1752333714.1035526,1.529,1.425,1
1752333714.1129355,1.523,1.415,1
1752333714.1229947,1.533,1.426,1
1752333714.1331723,1.53,1.42,1
1752333714.1428587,1.534,1.422,1
1752333714.152981,1.511,1.413,1
1752333714.1661077,1.528,1.426,1
1752333714.1730626,1.556,1.417,1
1752333714.1830645,1.535,1.426,1
1752333714.1932638,1.529,1.434,1
1752333714.2029328,1.521,1.422,1
1752333714.213121,1.536,1.423,1
1752333714.222815,1.538,1.428,1
1752333714.2329805,1.542,1.423,1
1752333714.2450633,1.531,1.426,1
1752333714.2560346,1.515,1.42,1
1752333714.263017,1.541,1.426,1
1752333714.2734582,1.528,1.433,1
1752333714.2829466,1.532,1.418,1
1752333714.2929223,1.554,1.415,1
1752333714.303121,1.544,1.412,1
1752333714.3127537,1.535,1.412,1
1752333714.32536,1.538,1.422,1
1752333714.3373282,1.521,1.423,1
1752333714.3423152,1.537,1.447,1
1752333714.3533595,1.562,1.415,1
1752333714.36291,1.53,1.431,1
1752333714.3728957,1.58,1.441,1
1752333714.3829813,1.558,1.434,1
1752333714.393432,1.523,1.433,1
1752333714.4039981,1.532,1.428,1
1752333714.4149938,1.536,1.428,1
1752333714.4229484,1.549,1.42,1
1752333714.4331608,1.534,1.431,1
1752333714.4428813,1.538,1.426,1
1752333714.4531682,1.555,1.423,1
1752333714.4630668,1.531,1.426,1
1752333714.4731545,1.514,1.42,1
1752333714.4880924,1.53,1.426,1
1752333714.4940507,1.541,1.42,1
1752333714.5031996,1.538,1.439,1
1752333714.5137327,1.555,1.425,1
1752333714.5231175,1.538,1.436,1
1752333714.5331054,1.545,1.412,1
1752333714.5429661,1.541,1.418,1
1752333714.5596576,1.548,1.42,1
1752333714.5656414,1.557,1.433,1
1752333714.5736203,1.51,1.422,1
1752333714.5827687,1.564,1.441,1
1752333714.593088,1.517,1.434,1
1752333714.603369,1.524,1.423,1
1752333714.612717,1.549,1.422,1
1752333714.6229022,1.555,1.428,1
1752333714.6378577,1.525,1.439,1
1752333714.6438413,1.518,1.436,1
1752333714.6528175,1.575,1.42,1
1752333714.6631467,1.525,1.425,1
1752333714.6731944,1.55,1.425,1
1752333714.68319,1.553,1.438,1
1752333714.6931133,1.531,1.418,1
1752333714.7030683,1.549,1.446,1
1752333714.7169254,1.484,1.42,1
1752333714.7239068,1.554,1.428,1
1752333714.7328832,1.523,1.418,1
1752333714.743097,1.513,1.428,1
1752333714.7526686,1.539,1.423,1
1752333714.7630193,1.509,1.428,1
1752333714.7729502,1.51,1.418,1
1752333714.7828422,1.528,1.422,1
1752333714.7942953,1.525,1.426,1
1752333714.8062925,1.55,1.444,1
1752333714.812275,1.536,1.426,1
1752333714.8232765,1.557,1.431,1
1752333714.8331165,1.528,1.433,1
1752333714.84329,1.538,1.436,1
1752333714.8531048,1.543,1.422,1
1752333714.8633308,1.544,1.447,1
1752333714.8743455,1.528,1.439,1
1752333714.8853157,1.556,1.434,1
1752333714.8934324,1.541,1.426,1
1752333714.9029572,1.562,1.428,1
1752333714.9130197,1.522,1.438,1
1752333714.923095,1.551,1.428,1
1752333714.9335032,1.542,1.422,1
1752333714.9429858,1.551,1.425,1
1752333714.9569514,1.537,1.431,1
1752333714.963824,1.538,1.446,1
1752333714.9731846,1.536,1.428,1
1752333714.983194,1.525,1.446,1
1752333714.9934263,1.543,1.426,1
1752333715.003429,1.517,1.436,1
1752333715.0130363,1.525,1.425,1
1752333715.0228894,1.542,1.441,1
1752333715.0367537,1.567,1.446,1
1752333715.0437357,1.458,1.431,1
1752333715.053039,1.486,1.412,1
1752333715.0624042,1.565,1.433,1
1752333715.0733604,1.506,1.439,1
1752333715.083172,1.526,1.423,1
1752333715.0929863,1.603,1.438,1
1752333715.1100655,1.536,1.426,1
1752333715.1170475,1.47,1.409,1
1752333715.1240282,1.588,1.436,1
1752333715.133051,1.506,1.418,1
1752333715.1431541,1.532,1.428,1
1752333715.1529481,1.504,1.423,1
1752333715.162666,1.564,1.431,1
1752333715.1734085,1.577,1.43,1
1752333715.1893146,1.478,1.425,1
1752333715.1968336,1.493,1.415,1
1752333715.2038229,1.543,1.426,1
1752333715.2124379,1.563,1.425,1
1752333715.2231016,1.563,1.444,1
1752333715.2329895,1.573,1.426,1
1752333715.2427752,1.544,1.431,1
1752333715.2529862,1.526,1.422,1
1752333715.2670949,1.537,1.451,1
1752333715.2741,1.556,1.428,1
1752333715.284074,1.551,1.436,1
1752333715.2934296,1.559,1.425,1
1752333715.3031237,1.561,1.431,1
1752333715.313308,1.542,1.425,1
1752333715.3226857,1.559,1.439,1
1752333715.3330026,1.534,1.422,1
1752333715.344565,1.529,1.444,1
1752333715.3545613,1.501,1.415,1
1752333715.3625176,1.58,1.431,1
1752333715.3731325,1.531,1.425,1
1752333715.3829927,1.484,1.439,1
1752333715.3931932,1.556,1.431,1
1752333715.403122,1.56,1.441,1
1752333715.4131572,1.51,1.425,1
1752333715.4236267,1.546,1.449,1
1752333715.4355953,1.513,1.434,1
1752333715.4428616,1.544,1.438,1
1752333715.4531863,1.569,1.426,1
1752333715.462632,1.551,1.433,1
1752333715.4734132,1.535,1.426,1
1752333715.4832337,1.533,1.441,1
1752333715.492943,1.56,1.439,1
1752333715.5077786,1.521,1.433,1
1752333715.5147607,1.529,1.436,1
1752333715.5227292,1.528,1.426,1
1752333715.532899,1.535,1.423,1
1752333715.5431604,1.513,1.431,1
1752333715.5531836,1.53,1.418,1
1752333715.562448,1.541,1.428,1
1752333715.5830784,1.487,1.42,1
1752333715.5880647,1.497,1.428,1
1752333715.5950491,1.547,1.433,1
1752333715.6030629,1.487,1.428,1
1752333715.6131682,1.487,1.423,1
1752333715.6227472,1.567,1.431,1
1752333715.6332092,1.523,1.431,1
1752333715.6429305,1.546,1.428,1
1752333715.6590786,1.523,1.417,1
1752333715.6670833,1.547,1.42,1
1752333715.6731787,1.575,1.42,1
1752333715.682558,1.56,1.425,1
1752333715.692972,1.565,1.42,1
1752333715.7031062,1.599,1.446,1
1752333715.712584,1.55,1.431,1
1752333715.7228377,1.593,1.449,1
1752333715.7371128,1.567,1.439,1
1752333715.7450962,1.546,1.449,1
1752333715.753045,1.521,1.413,1
1752333715.763082,1.519,1.436,1
1752333715.7729473,1.511,1.42,1
1752333715.7834668,1.466,1.42,1
1752333715.7926302,1.563,1.431,1
1752333715.8029592,1.512,1.438,1
1752333715.8165336,1.527,1.42,1
1752333715.8235073,1.56,1.439,1
1752333715.8334796,1.572,1.447,1
1752333715.8431828,1.592,1.447,1
1752333715.853153,1.503,1.428,1
1752333715.862543,1.568,1.439,1
1752333715.873117,1.516,1.428,1
1752333715.8830037,1.52,1.451,1
1752333715.8969955,1.51,1.418,1
1752333715.9039657,1.472,1.434,1
1752333715.913946,1.518,1.409,1
1752333715.9233623,1.628,1.451,1
1752333715.9328847,1.164,1.394,1
1752333715.9428496,1.635,1.438,1
1752333715.9535053,1.668,1.46,1
1752333715.9626355,1.555,1.434,1
1752333715.974652,1.621,1.436,1
1752333715.9856484,1.762,1.451,1
1752333715.993005,1.39,1.425,1
1752333716.0029776,1.507,1.418,1
1752333716.0126874,1.615,1.441,1
1752333716.0231597,1.625,1.46,1
1752333716.0330968,1.451,1.426,1
1752333716.0434015,1.538,1.441,1
1752333716.0542977,1.004,1.362,1
1752333716.0662353,1.644,1.446,1
1752333716.0734882,1.536,1.417,1
1752333716.0834067,1.546,1.422,1
1752333716.0931067,1.501,1.428,1
1752333716.10294,1.612,1.447,1
1752333716.1132631,1.556,1.433,1
1752333716.1231127,1.549,1.422,1
1752333716.1335893,1.563,1.415,1
1752333716.1445599,1.528,1.441,1
1752333716.1529932,1.542,1.423,1
1752333716.1633506,1.523,1.426,1
1752333716.1729343,1.476,1.413,1
1752333716.183052,1.567,1.449,1
1752333716.193121,1.43,1.404,1
1752333716.2029614,1.588,1.436,1
1752333716.2159297,1.564,1.423,1
