timestamp,v1,v2,label
1752550668.6101773,1.478769,1.697963,1
1752550668.6131694,1.522275,1.672181,1
1752550668.616161,1.523081,1.686683,1
1752550668.6181557,1.482797,1.722939,1
1752550668.6181557,1.431183,1.722133,1
1752550668.6181557,1.3909,1.709242,1
1752550668.6191535,1.398956,1.677821,1
1752550668.6191535,1.412653,1.654456,1
1752550668.6191535,1.454598,1.747109,1
1752550668.6191535,1.518247,1.838956,1
1752550668.6191535,1.510996,1.777725,1
1752550668.6201508,1.536777,1.811563,1
1752550668.6201508,1.486825,1.786587,1
1752550668.6201508,1.428766,1.740664,1
1752550668.6201508,1.51583,1.641515,1
1752550668.6201508,1.400568,1.767251,1
1752550668.6211479,1.381231,1.757583,1
1752550668.6321187,1.416681,1.666541,1
1752550668.634114,1.449764,1.715688,1
1752550668.6410944,1.488437,1.78417,1
1752550668.6501024,1.484408,1.606871,1
1752550668.652099,1.506162,1.581895,1
1752550668.6550896,1.516635,1.661707,1
1752550668.6570854,1.494076,1.719716,1
1752550668.6580815,1.427155,1.727773,1
1752550668.6580815,1.398956,1.747915,1
1752550668.6580815,1.406207,1.722133,1
1752550668.6580815,1.444124,1.693935,1
1752550668.659079,1.460238,1.697963,1
1752550668.659079,1.457821,1.73583,1
1752550668.659079,1.461849,1.750332,1
1752550668.659079,1.506162,1.742275,1
1752550668.659079,1.523886,1.660096,1
1752550668.6600776,1.486825,1.685072,1
1752550668.6600776,1.435212,1.610094,1
1752550668.6600776,1.400568,1.600426,1
1752550668.671015,1.405402,1.627013,1
1752550668.6730428,1.429572,1.636681,1
1752550668.6800222,1.453793,1.741469,1
1752550668.682983,1.484408,1.906683,1
1752550668.690993,1.547251,1.970332,1
1752550668.6939886,1.493271,1.712465,1
1752550668.6969793,1.521469,1.505356,1
1752550668.6969793,1.581895,1.395734,1
1752550668.6969793,1.352227,1.544834,1
1752550668.6969793,1.22488,1.78417,1
1752550668.6979742,1.435212,1.730996,1
1752550668.6979742,1.47474,1.681044,1
1752550668.6979742,1.467489,1.82526,1
1752550668.6979742,1.457015,1.647961,1
1752550668.6979742,1.573838,1.248295,1
1752550668.698972,1.495688,1.693129,1
1752550668.698972,1.519858,1.699574,1
1752550668.698972,1.473935,1.776919,1
1752550668.698972,1.394122,1.672181,1
1752550668.6999378,1.407819,1.577867,1
1752550668.71094,1.376397,1.9091,1
1752550668.7189188,1.519052,1.87929,1
1752550668.7209146,1.581089,1.767251,1
1752550668.7289007,1.40943,1.519858,1
1752550668.7298894,1.435212,1.32564,1
1752550668.7328484,1.527915,1.672987,1
1752550668.735873,1.417487,1.600426,1
1752550668.7368388,1.54564,1.162843,1
1752550668.7368388,1.393317,1.554502,1
1752550668.7368388,1.268437,2.0509,1
1752550668.7368388,1.362701,1.862371,1
1752550668.7378693,1.530332,1.761611,1
1752550668.7378693,1.498911,1.616539,1
1752550668.7378693,1.40379,1.785782,1
1752550668.7378693,1.502133,1.671376,1
1752550668.7378693,1.472323,1.582701,1
1752550668.738833,1.494076,1.376397,1
1752550668.738833,1.492465,1.606066,1
1752550668.738833,1.489242,1.41507,1
1752550668.7508328,1.358672,1.665736,1
1752550668.7588065,1.539194,1.919574,1
1752550668.760803,1.48602,1.789004,1
1752550668.7687867,1.42071,1.436017,1
1752550668.7707798,1.399762,1.540806,1
1752550668.7737746,1.412653,1.652845,1
1752550668.775735,1.53436,1.661707,1
1752550668.775735,1.544028,1.597203,1
1752550668.7767317,1.490854,1.73583,1
1752550668.7767317,1.305498,1.595592,1
1752550668.7767317,1.337725,1.60526,1
1752550668.7767317,1.421515,1.612511,1
1752550668.7767317,1.609288,1.655262,1
1752550668.777729,1.498105,1.503745,1
1752550668.777729,1.428766,1.71891,1
1752550668.777729,1.513413,1.236965,1
1752550668.777729,1.486825,1.382037,1
1752550668.777729,1.50455,1.828483,1
1752550668.7787657,1.398956,1.569004,1
1752550668.779759,1.452181,1.331279,1
1752550668.7897313,1.388482,1.589146,1
1752550668.7967103,1.348199,1.45057,1
1752550668.7996707,1.511801,1.371563,1
1752550668.8016653,1.475546,1.718105,1
1752550668.8086803,1.398956,1.785782,1
1752550668.810681,1.600426,1.847819,1
1752550668.8136675,1.631041,1.852653,1
1752550668.8156595,1.595592,1.3909,1
1752550668.8156595,1.494076,1.524692,1
1752550668.8156595,1.321611,1.423932,1
1752550668.8156595,1.174122,1.344976,1
1752550668.8166254,1.41507,1.748721,1
1752550668.8166254,1.485214,1.565782,1
1752550668.8166254,1.438434,1.512607,1
1752550668.8166254,1.473129,1.37962,1
1752550668.8166254,1.67057,1.461044,1
1752550668.8176548,1.48602,1.568199,1
1752550668.8176548,1.401373,1.602843,1
1752550668.8186464,1.519858,1.790616,1
1752550668.8286319,1.4336,1.598814,1
1752550668.8315852,1.407819,1.743886,1
1752550668.8385673,1.417487,1.842179,1
1752550668.8405948,1.431989,1.714076,1
1752550668.8475688,1.470712,1.830899,1
1752550668.850535,1.506967,1.760806,1
1752550668.8535259,1.593175,1.548057,1
1752550668.855553,1.547251,1.21924,1
1752550668.855553,1.421515,1.380426,1
1752550668.855553,1.271659,1.489242,1
1752550668.855553,1.335308,1.671376,1
1752550668.855553,1.502939,1.71891,1
1752550668.8565516,1.538389,1.848624,1
1752550668.8565516,1.515024,1.876068,1
1752550668.8565516,1.486825,1.701991,1
1752550668.8565516,1.461849,1.671376,1
1752550668.8565516,1.487631,1.540806,1
1752550668.8575478,1.48038,1.407819,1
1752550668.8575478,1.454598,1.502939,1
1752550668.858514,1.406207,1.610094,1
1752550668.8685184,1.43924,1.590758,1
1752550668.871511,1.422321,1.502133,1
1752550668.8784914,1.371563,1.661707,1
1752550668.8874676,1.427961,1.75436,1
1752550668.8884666,1.52872,1.756777,1
1752550668.8904593,1.576255,1.718105,1
1752550668.892455,1.564976,1.78981,1
1752550668.8944175,1.431989,1.809952,1
1752550668.8944175,1.367535,1.588341,1
1752550668.8944175,1.418293,1.50455,1
1752550668.8954477,1.432795,1.63507,1
1752550668.8954477,1.424738,1.737441,1
1752550668.8954477,1.4691,1.581089,1
1752550668.8954477,1.538389,1.54564,1
1752550668.8954477,1.428766,1.616539,1
1752550668.8964453,1.523886,1.748721,1
1752550668.8964453,1.495688,1.838956,1
1752550668.8964453,1.447347,1.839762,1
1752550668.897441,1.432795,1.798672,1
1752550668.908412,1.427155,1.758389,1
1752550668.9114034,1.441657,1.673793,1
1752550668.9173717,1.454598,1.652845,1
1752550668.920381,1.444124,1.73019,1
1752550668.9273758,1.464266,1.760806,1
1752550668.9293554,1.473935,1.863983,1
1752550668.932348,1.553697,1.70038,1
1752550668.9343107,1.506162,1.706825,1
1752550668.9353392,1.457015,1.748721,1
1752550668.9353392,1.453793,1.824454,1
1752550668.9353392,1.418293,1.845402,1
1752550668.9353392,1.389288,1.748721,1
1752550668.936339,1.418293,1.735024,1
1752550668.936339,1.479574,1.746304,1
1752550668.936339,1.484408,1.756777,1
1752550668.936339,1.519858,1.760806,1
1752550668.9373343,1.516635,1.721327,1
1752550668.9373343,1.515024,1.711659,1
1752550668.9373343,1.500522,1.689906,1
1752550668.9373343,1.421515,1.734218,1
1752550668.948305,1.364312,1.718105,1
1752550668.9502683,1.41507,1.650428,1
1752550668.958246,1.434406,1.660096,1
1752550668.9672575,1.464266,1.799478,1
1752550668.9672575,1.508579,1.807535,1
1752550668.9702458,1.543223,1.799478,1
1752550668.9732406,1.529526,1.847013,1
1752550668.9742029,1.491659,1.796255,1
1752550668.9742029,1.445736,1.760806,1
1752550668.9752357,1.419904,1.755166,1
1752550668.9752357,1.380426,1.789004,1
1752550668.9752357,1.427155,1.78417,1
1752550668.9752357,1.441657,1.764834,1
1752550668.9752357,1.425544,1.743886,1
1752550668.976232,1.508579,1.660096,1
1752550668.976232,1.521469,1.601231,1
1752550668.976232,1.505356,1.660902,1
1752550668.976232,1.484408,1.757583,1
1752550668.976232,1.487631,1.826871,1
1752550668.9772274,1.421515,1.812369,1
1752550668.9871693,1.386065,1.800284,1
1752550668.989198,1.423127,1.768862,1
1752550668.9961782,1.431183,1.693935,1
1752550668.9981742,1.460238,1.710048,1
1752550669.0061505,1.485214,1.691518,1
1752550669.0091438,1.502939,1.702797,1
1752550669.012128,1.530332,1.78417,1
1752550669.0131333,1.530332,1.722939,1
1752550669.014129,1.463461,1.667347,1
1752550669.014129,1.427961,1.651234,1
1752550669.014129,1.412653,1.589146,1
1752550669.014129,1.424738,1.668153,1
1752550669.014129,1.406207,1.81962,1
1752550669.015126,1.406207,1.799478,1
1752550669.015126,1.482797,1.870428,1
1752550669.015126,1.51583,1.848624,1
1752550669.015126,1.541611,1.789004,1
1752550669.015126,1.512607,1.730996,1
1752550669.0161252,1.455404,1.722939,1
1752550669.0270956,1.412653,1.714882,1
1752550669.0300868,1.402179,1.703603,1
1752550669.0370347,1.417487,1.673793,1
1752550669.0420551,1.423127,1.560142,1
1752550669.048007,1.465878,1.538389,1
1752550669.0500011,1.481186,1.685878,1
1752550669.0519958,1.53436,1.596397,1
1752550669.0529926,1.507773,2.017061,1
1752550669.0539908,1.499716,1.762417,1
1752550669.0539908,1.454598,1.703603,1
1752550669.0539908,1.402179,1.718105,1
1752550669.0539908,1.395734,1.65929,1
1752550669.0539908,1.41507,1.671376,1
1752550669.0549884,1.442463,1.660902,1
1752550669.0549884,1.461849,1.62943,1
1752550669.0549884,1.483603,1.525498,1
1752550669.0549884,1.515024,1.447347,1
1752550669.0549884,1.60526,1.586729,1
1752550669.0559847,1.549668,1.705214,1
1752550669.0559847,1.308721,1.677821,1
1752550669.0659573,1.54564,1.319194,1
1752550669.0679898,1.365118,1.899432,1
1752550669.074934,1.356255,1.89057,1
1752550669.0769637,1.452987,1.770474,1
1752550669.0859046,1.509384,1.576255,1
1752550669.087928,1.531943,1.425544,1
1752550669.0899255,1.470712,1.324834,1
1752550669.09292,1.447347,1.561753,1
1752550669.09292,1.516635,1.683461,1
1752550669.0939174,1.431989,1.805923,1
1752550669.0939174,1.548862,1.300664,1
1752550669.0939174,1.606871,1.55128,1
1752550669.0939174,1.300664,1.816397,1
1752550669.0939174,1.36834,1.837345,1
1752550669.0949128,1.410236,1.725356,1
1752550669.0949128,1.471517,1.70602,1
1752550669.0949128,1.521469,1.769668,1
1752550669.0949128,1.452987,1.357867,1
1752550669.0949128,1.424738,1.40379,1
1752550669.0959117,1.460238,1.521469,1
1752550669.1068823,1.366729,1.70602,1
1752550669.108878,1.464266,1.48038,1
1752550669.1168225,1.432795,1.615734,1
1752550669.1248016,1.445736,1.669764,1
1752550669.1267958,1.547251,1.685072,1
1752550669.129814,1.573033,1.868011,1
1752550669.1317813,1.586729,1.99853,1
1752550669.1327791,1.508579,1.729384,1
1752550669.1327791,1.538389,1.29583,1
1752550669.1327791,1.40943,1.692323,1
1752550669.1327791,1.378009,1.407819,1
1752550669.1337764,1.251517,0.9960174,1
1752550669.1337764,1.231325,1.399762,1
1752550669.1337764,1.519052,1.645544,1
1752550669.1337764,1.622985,1.618956,1
1752550669.1337764,1.595592,1.493271,1
1752550669.1347735,1.523886,1.699574,1
1752550669.1347735,1.471517,1.770474,1
1752550669.1347735,1.461849,2.033175,1
1752550669.1447794,1.416681,1.927631,1
1752550669.1467414,1.357061,1.553697,1
1752550669.1497345,1.373175,1.71891,1
1752550669.1567492,1.443269,1.743081,1
1752550669.158742,1.491659,1.4691,1
1752550669.1666903,1.553697,1.798672,1
1752550669.1697137,1.453793,1.570616,1
1752550669.1726725,1.556919,1.614122,1
1752550669.1736693,1.455404,1.286967,1
1752550669.1736693,1.402179,1.414264,1
1752550669.1736693,1.264408,1.627819,1
1752550669.1746678,1.332891,1.780948,1
1752550669.1746678,1.457821,1.50455,1
1752550669.1746678,1.380426,1.330474,1
1752550669.1746678,1.505356,1.660096,1
1752550669.1746678,1.518247,1.728579,1
1752550669.1756644,1.505356,1.747915,1
1752550669.1756644,1.661707,1.720522,1
1752550669.1756644,1.71891,1.548057,1
1752550669.1756644,1.336113,1.51019,1
1752550669.176662,1.268437,1.52872,1
1752550669.1886652,1.434406,1.688295,1
1752550669.1956537,1.313555,1.851041,1
1752550669.1986394,1.407819,1.560142,1
1752550669.2065818,1.544834,1.54564,1
1752550669.2085764,1.491659,1.876873,1
1752550669.2115688,1.547251,1.747915,1
1752550669.2136137,1.491659,1.644738,1
1752550669.2136137,1.512607,1.137061,1
1752550669.2145598,1.48602,1.573033,1
1752550669.2145598,1.477963,1.686683,1
1752550669.2145598,1.440046,1.731801,1
1752550669.2145598,1.430378,1.921991,1
1752550669.2145598,1.357867,1.9091,1
1752550669.215557,1.331279,1.577867,1
1752550669.215557,1.467489,1.569004,1
1752550669.215557,1.399762,1.537583,1
1752550669.215557,1.490854,1.121753,1
1752550669.216555,1.53436,1.321611,1
1752550669.227526,1.51019,1.738247,1
1752550669.235505,1.381231,1.747915,1
1752550669.2384965,1.468295,1.53436,1
1752550669.246475,1.477963,1.709242,1
1752550669.2484698,1.48602,1.847819,1
1752550669.2514625,1.518247,1.656873,1
1752550669.2544544,1.562559,1.738247,1
1752550669.2544544,1.487631,1.679432,1
1752550669.2554512,1.384454,1.610094,1
1752550669.2554512,1.331279,1.722133,1
1752550669.2554512,1.364312,1.596397,1
1752550669.2554512,1.451376,1.573838,1
1752550669.2554512,1.489242,1.589146,1
1752550669.2564487,1.505356,1.637487,1
1752550669.2564487,1.500522,1.655262,1
1752550669.2564487,1.516635,1.639904,1
1752550669.2564487,1.515024,1.639904,1
1752550669.2564487,1.503745,1.586729,1
1752550669.2574458,1.419098,1.600426,1
1752550669.26742,1.382037,1.677015,1
1752550669.2704115,1.405402,1.714882,1
1752550669.2773929,1.438434,1.728579,1
1752550669.2803845,1.485214,1.721327,1
1752550669.2883787,1.501328,1.699574,1
1752550669.2903912,1.516635,1.751137,1
1752550669.2923863,1.518247,1.723745,1
1752550669.295378,1.506967,1.677015,1
1752550669.295378,1.469906,1.612511,1
1752550669.295378,1.460238,1.593175,1
1752550669.2963736,1.407013,1.574644,1
1752550669.2963736,1.395734,1.598814,1
1752550669.2963736,1.431183,1.697963,1
1752550669.2963736,1.467489,1.744692,1
1752550669.2963736,1.465072,1.798672,1
1752550669.297371,1.479574,1.873651,1
1752550669.297371,1.544028,1.726162,1
1752550669.297371,1.522275,1.735024,1
1752550669.297371,1.464266,1.713271,1
1752550669.2983377,1.412653,1.66493,1
1752550669.2983377,1.393317,1.660096,1
1752550669.309307,1.413458,1.708437,1
1752550669.3122993,1.402985,1.689906,1
1752550669.3202782,1.458627,1.701991,1
1752550669.3292549,1.461044,1.837345,1
1752550669.3312485,1.527915,1.832511,1
1752550669.33424,1.560142,1.912323,1
1752550669.3372324,1.540806,1.610094,1
1752550669.3372324,1.483603,1.650428,1
1752550669.3372324,1.419098,1.717299,1
1752550669.3372324,1.315971,1.794644,1
1752550669.3382297,1.4336,1.844596,1
1752550669.3382297,1.43924,1.834928,1
1752550669.3382297,1.452181,1.826871,1
1752550669.3382297,1.471517,1.809146,1
1752550669.3382297,1.50455,1.755972,1
1752550669.3392272,1.530332,1.732607,1
1752550669.3392272,1.51583,1.693935,1
1752550669.3392272,1.478769,1.749526,1
1752550669.3392272,1.407819,1.847013,1
1752550669.3392272,1.381231,1.897821,1
1752550669.3511953,1.424738,1.88493,1
1752550669.357179,1.445736,1.838956,1
1752550669.362166,1.476351,1.800284,1
1752550669.3671572,1.482797,1.794644,1
1752550669.3721392,1.526303,1.785782,1
1752550669.3751311,1.566587,1.755972,1
1752550669.3781235,1.520664,1.72455,1
1752550669.3781235,1.42071,1.657679,1
1752550669.3781235,1.364312,1.548057,1
1752550669.3791203,1.380426,1.54564,1
1752550669.3791203,1.413458,1.704408,1
1752550669.3791203,1.447347,1.796255,1
1752550669.3791203,1.469906,1.780948,1
1752550669.3791203,1.478769,1.75436,1
1752550669.3801174,1.518247,1.739052,1
1752550669.3801174,1.544028,1.71891,1
1752550669.3801174,1.505356,1.718105,1
1752550669.3801174,1.460238,1.756777,1
1752550669.381115,1.427155,1.715688,1
1752550669.381115,1.384454,1.686683,1
1752550669.381115,1.416681,1.683461,1
1752550669.3930829,1.400568,1.627819,1
1752550669.395079,1.448958,1.643932,1
1752550669.4040918,1.602037,1.674598,1
1752550669.4120324,1.530332,1.522275,1
1752550669.414027,1.519858,1.496493,1
1752550669.4180162,1.400568,1.748721,1
1752550669.4200115,1.448958,1.706825,1
1752550669.4200115,1.416681,1.668153,1
1752550669.4200115,1.40379,1.603648,1
1752550669.4210083,1.399762,1.656068,1
1752550669.4210083,1.438434,1.653651,1
1752550669.4210083,1.497299,1.611705,1
1752550669.4210083,1.50455,1.619762,1
1752550669.4210083,1.485214,1.668153,1
1752550669.4220061,1.515024,1.610094,1
1752550669.4220061,1.505356,1.573838,1
1752550669.4220061,1.477157,1.51583,1
1752550669.4220061,1.431183,1.595592,1
1752550669.423003,1.40943,1.763223,1
1752550669.423003,1.435212,1.747915,1
1752550669.423003,1.40379,1.822843,1
1752550669.4339736,1.419904,1.876873,1
1752550669.4369652,1.469906,1.444124,1
1752550669.4449446,1.583507,1.822843,1
1752550669.4519277,1.611705,1.541611,1
1752550669.4549513,1.452987,1.650428,1
1752550669.457943,1.308721,1.601231,1
1752550669.4599044,1.371563,1.496493,1
1752550669.461931,1.448153,1.457821,1
1752550669.461931,1.492465,1.50455,1
1752550669.461931,1.438434,1.73019,1
1752550669.461931,1.430378,1.79545,1
1752550669.461931,1.54564,1.647155,1
1752550669.4629302,1.543223,1.732607,1
1752550669.4629302,1.465878,2.005781,1
1752550669.4629302,1.483603,1.399762,1
1752550669.4629302,1.549668,1.521469,1
1752550669.4629302,1.354644,1.780142,1
1752550669.4639258,1.291801,1.695546,1
1752550669.4639258,1.443269,1.716494,1
1752550669.4639258,1.506162,1.569004,1
1752550669.464923,1.491659,1.499716,1
1752550669.4768908,1.48602,1.612511,1
1752550669.4848378,1.413458,1.711659,1
1752550669.4878297,1.639098,1.592369,1
1752550669.4958084,1.576255,1.457821,1
1752550669.4978034,1.361089,1.571421,1
1752550669.500795,1.407819,1.498911,1
1752550669.5038,1.440046,1.625402,1
1752550669.5038,1.357061,1.818009,1
1752550669.5038,1.40379,1.868011,1
1752550669.5038,1.54,1.3909,1
1752550669.5047848,1.494882,1.519858,1
1752550669.5047848,1.468295,1.548862,1
1752550669.5047848,1.486825,1.50455,1
1752550669.5047848,1.627013,1.658485,1
1752550669.5047848,1.535166,1.614928,1
1752550669.5057814,1.236965,1.627819,1
1752550669.5057814,1.324834,1.618956,1
1752550669.5057814,1.506162,1.710854,1
1752550669.5057814,1.425544,1.394928,1
1752550669.5067787,1.460238,1.844596,1
1752550669.5182571,1.478769,1.910712,1
1752550669.5212495,1.537583,1.466683,1
1752550669.528231,1.548057,1.683461,1
1752550669.5332172,1.628624,1.833317,1
1752550669.5382047,1.483603,1.375592,1
1752550669.5412283,1.174928,1.407013,1
1752550669.5441875,1.3909,1.853458,1
1752550669.5452206,1.461044,1.963081,1
1752550669.5452206,1.304692,1.557725,1
1752550669.5452206,1.502133,1.150758,1
1752550669.5462155,1.57545,1.471517,1
1752550669.5462155,1.615734,1.669764,1
1752550669.5462155,1.553697,1.943745,1
1752550669.5462155,1.56981,1.647155,1
1752550669.547212,1.373175,1.78981,1
1752550669.547212,1.377203,1.608482,1
1752550669.547212,1.43924,1.574644,1
1752550669.547212,1.357867,1.751137,1
1752550669.547212,1.481186,1.892987,1
1752550669.548213,1.547251,1.771279,1
1752550669.548213,1.446542,1.361089,1
1752550669.559183,1.435212,1.289384,1
1752550669.562173,1.425544,1.455404,1
1752550669.5691574,1.59962,1.03474,1
1752550669.5721486,1.440046,1.235354,1
1752550669.5801287,1.361089,1.574644,1
1752550669.584082,1.411847,1.917157,1
1752550669.5860767,1.532749,2.035592,1
1752550669.587074,1.47474,1.631041,1
1752550669.587074,1.440046,1.477157,1
1752550669.587074,1.373175,1.634264,1
1752550669.587074,1.348199,1.634264,1
1752550669.587074,1.537583,1.651234,1
1752550669.5880709,1.461849,1.76564,1
1752550669.5880709,1.483603,1.696352,1
1752550669.5880709,1.445736,1.523886,1
1752550669.5880709,1.443269,1.457015,1
1752550669.589068,1.465878,1.710854,1
1752550669.589068,1.492465,1.806729,1
1752550669.589068,1.538389,1.647155,1
1752550669.589068,1.492465,1.440046,1
1752550669.6000383,1.56981,1.501328,1
1752550669.6030312,1.448958,1.917963,1
1752550669.6100118,1.414264,1.842985,1
1752550669.6130126,1.473129,1.18379,1
1752550669.6210182,1.337725,1.570616,1
1752550669.6240122,1.369952,1.6891,1
1752550669.6270027,1.416681,1.567393,1
1752550669.6280012,1.507773,1.652039,1
1752550669.6280012,1.510996,1.698769,1
1752550669.6280012,1.52872,1.687489,1
1752550669.6289968,1.539194,1.673793,1
1752550669.6289968,1.523081,1.624596,1
1752550669.6289968,1.459432,1.666541,1
1752550669.6289968,1.390094,1.751943,1
1752550669.6289968,1.357867,1.747915,1
1752550669.629994,1.390094,1.721327,1
1752550669.629994,1.447347,1.725356,1
1752550669.629994,1.497299,1.692323,1
1752550669.629994,1.508579,1.697157,1
1752550669.629994,1.524692,1.67621,1
1752550669.6309934,1.556113,1.652039,1
1752550669.6419303,1.50455,1.661707,1
1752550669.644922,1.458627,1.67621,1
1752550669.653898,1.384454,1.701186,1
1752550669.6618764,1.34417,1.685878,1
1752550669.6638713,1.412653,1.684266,1
1752550669.665866,1.464266,1.682655,1
1752550669.6688588,1.483603,1.683461,1
1752550669.669856,1.518247,1.677821,1
1752550669.669856,1.512607,1.660902,1
1752550669.669856,1.556919,1.664124,1
1752550669.669856,1.503745,1.682655,1
1752550669.669856,1.446542,1.708437,1
1752550669.6708536,1.36834,1.735024,1
1752550669.6708536,1.3909,1.777725,1
1752550669.6708536,1.425544,1.748721,1
1752550669.6708536,1.398956,1.801089,1
1752550669.6718497,1.473935,1.756777,1
1752550669.6718497,1.523081,1.796255,1
1752550669.6718497,1.573033,1.769668,1
1752550669.6718497,1.523081,1.686683,1
1752550669.6828206,1.498105,1.741469,1
1752550669.6868107,1.427155,1.764028,1
1752550669.693791,1.3909,1.758389,1
1752550669.7027676,1.365118,1.801089,1
1752550669.7047622,1.418293,1.840568,1
1752550669.7077541,1.434406,1.812369,1
1752550669.7107458,1.441657,1.703603,1
1752550669.7107458,1.499716,1.869622,1
1752550669.7107458,1.597203,1.94455,1
1752550669.7107458,1.543223,1.812369,1
1752550669.7117429,1.499716,1.793838,1
1752550669.7117429,1.44493,1.796255,1
1752550669.7117429,1.377203,1.755972,1
1752550669.7117429,1.373175,1.742275,1
1752550669.7117429,1.394122,1.786587,1
1752550669.7127407,1.444124,1.822037,1
1752550669.7127407,1.48602,1.853458,1
1752550669.7127407,1.499716,1.874456,1
1752550669.7127407,1.505356,1.86076,1
1752550669.7137387,1.529526,1.735024,1
1752550669.713804,1.541611,1.585924,1
1752550669.7267067,1.471517,1.708437,1
1752550669.7336876,1.380426,1.70038,1
1752550669.7356827,1.390094,1.903461,1
1752550669.7387066,1.390094,1.892987,1
1752550669.7456982,1.442463,1.788199,1
1752550669.7476847,1.485214,1.777725,1
1752550669.7496462,1.493271,1.731801,1
1752550669.7526376,1.541611,1.679432,1
1752550669.7526376,1.557725,1.634264,1
1752550669.753634,1.52872,1.631041,1
1752550669.753634,1.440851,1.709242,1
1752550669.753634,1.339336,1.783365,1
1752550669.753634,1.354644,1.708437,1
1752550669.753634,1.393317,1.70602,1
1752550669.7546325,1.444124,1.713271,1
1752550669.7546325,1.496493,1.683461,1
1752550669.7546325,1.523886,1.635875,1
1752550669.7546325,1.55128,1.616539,1
1752550669.7556288,1.562559,1.593175,1
1752550669.7556288,1.511801,1.570616,1
1752550669.7556288,1.423932,1.556919,1
1752550669.7666013,1.360284,1.606871,1
1752550669.7696233,1.342559,1.690712,1
1752550669.7766075,1.37962,1.705214,1
1752550669.7795997,1.45057,1.776114,1
1752550669.7865782,1.48038,1.693129,1
1752550669.7905672,1.522275,1.763223,1
1752550669.7925296,1.539194,1.737441,1
1752550669.7945583,1.547251,1.671376,1
1752550669.7945583,1.499716,1.631847,1
1752550669.7945583,1.432795,1.548862,1
1752550669.7945583,1.392511,1.541611,1
1752550669.795556,1.366729,1.552085,1
1752550669.795556,1.399762,1.671376,1
1752550669.795556,1.427961,1.721327,1
1752550669.795556,1.498911,1.931659,1
1752550669.7965512,1.553697,1.725356,1
1752550669.7965512,1.529526,1.547251,1
1752550669.7965512,1.56981,1.610094,1
1752550669.7965512,1.481186,1.499716,1
1752550669.7965512,1.404596,1.553697,1
1752550669.7975562,1.342559,1.696352,1
1752550669.8084872,1.338531,1.6891,1
1752550669.810482,1.414264,1.498911,1
1752550669.8194585,1.435212,1.490048,1
1752550669.8274367,1.494882,1.711659,1
1752550669.8294313,1.554502,1.872039,1
1752550669.8314261,1.53436,1.82526,1
1752550669.8354156,1.560948,1.801089,1
1752550669.8354156,1.618151,1.652845,1
1752550669.8354156,1.496493,1.506162,1
1752550669.836413,1.197487,1.618151,1
1752550669.836413,1.376397,1.554502,1
1752550669.836413,1.452987,1.822843,1
1752550669.836413,1.421515,1.807535,1
1752550669.836413,1.50455,1.714882,1
1752550669.83741,1.465878,1.223269,1
1752550669.83741,1.465878,1.340948,1
1752550669.83741,1.555308,1.505356,1
1752550669.83741,1.469906,1.581089,1
1752550669.8384073,1.411041,1.722133,1
1752550669.8384073,1.394928,1.818814,1
1752550669.8493776,1.358672,1.57545,1
1752550669.858354,1.460238,1.697963,1
1752550669.861346,1.495688,1.519858,1
1752550669.8693573,1.524692,1.738247,1
1752550669.8703225,1.511801,1.595592,1
1752550669.873347,1.566587,1.666541,1
1752550669.876306,1.568199,1.508579,1
1752550669.8773031,1.499716,1.241044,1
1752550669.8773031,1.421515,1.324028,1
1752550669.8773031,1.300664,1.506162,1
1752550669.8773031,1.266825,1.589952,1
1752550669.8783324,1.419904,1.647155,1
1752550669.8783324,1.512607,1.747915,1
1752550669.8783324,1.57545,1.734218,1
1752550669.8783324,1.597203,1.982417,1
1752550669.8783324,1.618151,1.841373,1
1752550669.8793333,1.436823,1.735024,1
1752550669.8793333,1.335308,1.448153,1
1752550669.8793333,1.277299,1.652845,1
1752550669.8793333,1.513413,1.317583,1
1752550669.880318,1.386871,1.506162,1
1752550669.8913004,1.47474,1.515024,1
1752550669.8942583,1.491659,1.506967,1
1752550669.902237,1.484408,1.517441,1
1752550669.9112124,1.496493,1.586729,1
1752550669.9132073,1.497299,1.622179,1
1752550669.9163728,1.622179,2.193554,1
1752550669.9193656,1.574644,2.062179,1
1752550669.9193656,1.405402,1.566587,1
1752550669.9193656,1.247489,1.26602,1
1752550669.9203625,1.276493,1.311138,1
1752550669.9203625,1.311943,1.544834,1
1752550669.9203625,1.348199,1.543223,1
1752550669.9203625,1.426349,2.057345,1
1752550669.9213605,1.764834,2.241895,1
1752550669.9213605,1.793838,1.267631,1
1752550669.9213605,1.620568,1.371563,1
1752550669.9213605,1.319194,1.407013,1
1752550669.9223576,1.340948,1.568199,1
1752550669.9223576,1.117725,1.596397,1
1752550669.9223576,1.1709,1.747915,1
1752550669.9223576,1.53436,1.770474,1
1752550669.9343257,1.548057,1.679432,1
1752550669.9423373,1.641515,1.535166,1
1752550669.9453278,1.465072,1.529526,1
1752550669.9533067,1.566587,1.438434,1
1752550669.957296,1.537583,1.557725,1
1752550669.9582946,1.549668,1.739052,1
1752550669.960291,1.386871,1.657679,1
1752550669.9612534,1.369952,1.60526,1
1752550669.9612534,1.387677,1.31436,1
1752550669.9612534,1.427961,1.741469,1
1752550669.9612534,1.43924,1.680238,1
1752550669.9612534,1.50455,1.654456,1
1752550669.9622822,1.56417,1.693935,1
1752550669.9622822,1.556113,1.612511,1
1752550669.9622822,1.54,1.579478,1
1752550669.9622822,1.422321,1.647961,1
1752550669.9632866,1.400568,1.479574,1
1752550669.9632866,1.455404,1.67057,1
1752550669.9632866,1.307109,1.406207,1
1752550669.9632866,1.324028,1.728579,1
1752550669.9642465,1.453793,1.858343,1
1752550669.976248,1.518247,2.037203,1
1752550669.9831955,1.563365,1.98564,1
1752550669.9871843,1.682655,1.671376,1
1752550669.9951627,1.653651,1.398151,1
1752550669.997157,1.468295,1.583507,1
1752550669.999152,1.282133,1.645544,1
1752550670.0021446,1.300664,1.345782,1
1752550670.0021446,1.265214,1.678627,1
1752550670.0031412,1.271659,1.910712,1
1752550670.0031412,1.541611,1.841373,1
1752550670.0031412,1.598814,1.812369,1
1752550670.0031412,1.548057,1.803506,1
1752550670.0041397,1.602037,1.607677,1
1752550670.0041397,1.576255,1.639904,1
1752550670.0041397,1.477157,1.742275,1
1752550670.0041397,1.401373,1.829288,1
1752550670.0041397,1.358672,1.647961,1
1752550670.0051365,1.404596,1.642321,1
1752550670.0051365,1.428766,1.685878,1
1752550670.0051365,1.460238,1.740664,1
1752550670.0163403,1.515024,1.728579,1
1752550670.0183318,1.532749,1.704408,1
1752550670.0253131,1.553697,1.698769,1
1752550670.0283053,1.543223,1.650428,1
1752550670.036316,1.496493,1.611705,1
1752550670.03931,1.390094,1.610899,1
1752550670.0423005,1.328862,1.677015,1
1752550670.044263,1.387677,1.693129,1
1752550670.044263,1.419098,1.75436,1
1752550670.044263,1.505356,1.708437,1
1752550670.044263,1.515024,1.723745,1
1752550670.0452588,1.56981,1.680238,1
1752550670.0452588,1.59398,1.663319,1
1752550670.0452588,1.548057,1.625402,1
1752550670.0452588,1.396539,1.67621,1
1752550670.0452588,1.300664,1.776114,1
1752550670.046256,1.34417,1.747109,1
1752550670.046256,1.3909,1.732607,1
1752550670.046256,1.448958,1.755166,1
1752550670.046256,1.510996,1.704408,1
1752550670.0472548,1.544834,1.726162,1
1752550670.0582573,1.556919,1.723745,1
1752550670.0612495,1.570616,1.731801,1
1752550670.0681999,1.492465,1.729384,1
1752550670.0711908,1.37962,1.782559,1
1752550670.0781715,1.336113,1.789004,1
1752550670.0811641,1.374786,1.750332,1
1752550670.0841558,1.408624,1.697157,1
1752550670.0861497,1.437629,1.672987,1
1752550670.0861497,1.51583,1.764834,1
1752550670.0861497,1.511801,1.88493,1
1752550670.0861497,1.544834,1.898627,1
1752550670.087148,1.535972,1.631041,1
1752550670.087148,1.500522,1.818009,1
1752550670.087148,1.425544,1.739858,1
1752550670.087148,1.370758,1.706825,1
1752550670.0881448,1.365118,1.880902,1
1752550670.0881448,1.435212,1.918769,1
1752550670.0881448,1.464266,1.777725,1
1752550670.0881448,1.451376,1.681044,1
1752550670.0881448,1.559336,1.576255,1
1752550670.101111,1.643932,1.427961,1
1752550670.1090884,1.481186,1.65929,1
1752550670.1110835,1.388482,1.820426,1
1752550670.1195955,1.377203,1.689906,1
1752550670.1215906,1.387677,1.716494,1
1752550670.125612,1.436017,1.633458,1
1752550670.126614,1.394122,1.56981,1
1752550670.126614,1.452987,1.736635,1
1752550670.1276126,1.53436,1.764834,1
1752550670.1276126,1.549668,1.771279,1
1752550670.1276126,1.570616,1.697157,1
1752550670.1276126,1.548862,1.647155,1
1752550670.1276126,1.51019,1.624596,1
1752550670.1286035,1.384454,1.682655,1
1752550670.1286035,1.310332,1.743886,1
1752550670.1286035,1.40379,1.774502,1
1752550670.1286035,1.440046,1.747109,1
1752550670.1286035,1.461044,1.774502,1
1752550670.1296015,1.489242,1.767251,1
1752550670.1296015,1.52872,1.716494,1
1752550670.1355846,1.580284,1.685072,1
1752550670.140571,1.533555,1.652039,1
1752550670.1465235,1.48038,1.581895,1
1752550670.1505508,1.40379,1.834122,1
1752550670.158533,1.295024,1.751137,1
1752550670.1594882,1.364312,1.697963,1
1752550670.1625125,1.436017,1.608482,1
1752550670.1655052,1.413458,1.666541,1
1752550670.166508,1.516635,1.690712,1
1752550670.166508,1.606066,1.442463,1
1752550670.166508,1.57545,1.495688,1
1752550670.166508,1.503745,1.755166,1
1752550670.166508,1.431183,1.753554,1
1752550670.167499,1.580284,1.35545,1
1752550670.167499,1.274076,1.584312,1
1752550670.167499,1.170094,1.772891,1
1752550670.167499,1.425544,1.851041,1
1752550670.167499,1.516635,1.766445,1
1752550670.1684997,1.502133,1.705214,1
1752550670.1684997,1.479574,1.6891,1
1752550670.1794698,1.541611,1.519858,1
1752550670.181462,1.569004,1.674598,1
1752550670.1894405,1.498911,1.536777,1
1752550670.198406,1.467489,1.527109,1
1752550670.2004187,1.34981,1.652845,1
1752550670.2024062,1.311943,1.532749,1
1752550670.205398,1.36834,1.455404,1
1752550670.205398,1.34981,1.564976,1
1752550670.205398,1.540806,1.701186,1
1752550670.205398,1.516635,1.859149,1
1752550670.2064009,1.585118,1.956635,1
1752550670.2064009,1.535166,1.672181,1
1752550670.2064009,1.489242,1.537583,1
1752550670.2064009,1.427961,1.502133,1
1752550670.2064009,1.358672,1.565782,1
1752550670.2073927,1.394122,1.712465,1
1752550670.2073927,1.432795,1.523886,1
1752550670.2073927,1.477963,1.481186,1
1752550670.2073927,1.448153,1.703603,1
1752550670.2083929,1.567393,1.876873,1
1752550670.2195928,1.681044,1.774502,1
1752550670.2215862,1.459432,1.745498,1
1752550670.2295656,1.396539,1.413458,1
1752550670.2375782,1.392511,1.521469,1
1752550670.2395656,1.298247,1.458627,1
1752550670.2425313,1.458627,1.628624,1
1752550670.244526,1.532749,1.660096,1
1752550670.244526,1.435212,1.518247,1
1752550670.2455232,1.294218,1.633458,1
1752550670.2455232,1.618151,1.490854,1
1752550670.2455232,1.581895,1.549668,1
1752550670.2455232,1.432795,1.606066,1
1752550670.24652,1.461849,1.602843,1
1752550670.24652,1.416681,1.690712,1
1752550670.24652,1.419098,1.598814,1
1752550670.24652,1.40379,1.67057,1
1752550670.24652,1.543223,1.73019,1
1752550670.247517,1.489242,1.535166,1
1752550670.247517,1.4336,1.594786,1
1752550670.2585201,1.463461,1.840568,1
1752550670.266499,1.413458,1.482797,1
1752550670.2694933,1.421515,1.383648,1
1752550670.2764814,1.378814,1.547251,1
1752550670.2804642,1.448958,1.506967,1
1752550670.2824562,1.397345,1.583507,1
1752550670.2834566,1.395734,1.685878,1
1752550670.2844183,1.538389,1.556919,1
1752550670.2844183,1.516635,1.609288,1
1752550670.2844183,1.628624,1.616539,1
1752550670.2844183,1.647155,1.801895,1
1752550670.2844183,1.606066,1.884125,1
1752550670.2854152,1.370758,1.530332,1
1752550670.2854152,1.206349,1.156397,1
1752550670.2854152,1.299052,1.687489,1
1752550670.2854152,1.205544,1.716494,1
1752550670.2864125,1.462655,1.594786,1
1752550670.2864125,1.444124,1.643932,1
1752550670.2864125,1.544028,1.682655,1
1752550670.2914352,1.573033,1.642321,1
1752550670.2964063,1.628624,1.557725,1
1752550670.299378,1.568199,1.498105,1
1752550670.3063598,1.498105,1.619762,1
1752550670.3093863,1.402179,1.86076,1
1752550670.3167136,1.434406,1.651234,1
1752550670.3197355,1.35545,1.495688,1
1752550670.322727,1.413458,1.523886,1
1752550670.323731,1.36834,1.517441,1
1752550670.323731,1.586729,1.587535,1
1752550670.323731,1.464266,1.440851,1
1752550670.323731,1.414264,1.383648,1
1752550670.323731,1.563365,1.652845,1
1752550670.32469,1.571421,1.802701,1
1752550670.32469,1.463461,1.55853,1
1752550670.32469,1.411847,1.376397,1
1752550670.32469,1.393317,1.78417,1
1752550670.32469,1.316777,1.852653,1
1752550670.3256867,1.414264,1.691518,1
1752550670.3256867,1.427155,1.751943,1
1752550670.337687,1.52872,1.829288,1
1752550670.3446708,1.624596,1.624596,1
1752550670.3466632,1.566587,1.631041,1
1752550670.348658,1.451376,1.682655,1
1752550670.3556077,1.402179,1.661707,1
1752550670.358635,1.371563,1.722939,1
1752550670.360628,1.407013,1.734218,1
1752550670.36262,1.453793,1.618956,1
1752550670.36262,1.508579,1.555308,1
1752550670.36262,1.513413,1.522275,1
1752550670.36262,1.594786,1.725356,1
1752550670.36262,1.587535,1.884125,1
1752550670.3636227,1.525498,1.626207,1
1752550670.3636227,1.416681,1.573838,1
1752550670.3636227,1.304692,1.698769,1
1752550670.3636227,1.339336,1.725356,1
1752550670.3646214,1.416681,1.698769,1
1752550670.3646214,1.461849,1.655262,1
1752550670.3655877,1.526303,1.634264,1
1752550670.3765852,1.570616,1.647155,1
1752550670.3845298,1.572227,1.654456,1
1752550670.3875213,1.539194,1.665736,1
1752550670.3945358,1.476351,1.664124,1
1752550670.3965325,1.359478,1.665736,1
1752550670.3994896,1.319194,1.644738,1
1752550670.402482,1.348199,1.690712,1
1752550670.402482,1.410236,1.673793,1
1752550670.402482,1.470712,1.626207,1
1752550670.402482,1.495688,1.712465,1
1752550670.402482,1.612511,1.785782,1
1752550670.4035156,1.573838,1.769668,1
1752550670.4035156,1.529526,1.81962,1
1752550670.4035156,1.490048,1.560948,1
1752550670.4035156,1.410236,1.62379,1
1752550670.4035156,1.357867,1.717299,1
1752550670.4044766,1.304692,1.781753,1
1752550670.4044766,1.378009,1.78981,1
1752550670.4044766,1.478769,1.677015,1
1752550670.4157426,1.542417,1.744692,1
1752550670.4177036,1.502133,1.908295,1
1752550670.4246843,1.56417,1.769668,1
1752550670.4267113,1.54564,1.774502,1
1752550670.4346907,1.446542,1.727773,1
1752550670.436686,1.382037,1.73019,1
1752550670.4386492,1.328057,1.930048,1
1752550670.4416714,1.399762,1.942133,1
1752550670.4416714,1.4336,1.793838,1
1752550670.4416714,1.477963,1.856732,1
1752550670.4416714,1.536777,1.809952,1
1752550670.4426763,1.606066,1.798672,1
1752550670.4426763,1.490048,1.782559,1
1752550670.4426763,1.466683,1.626207,1
1752550670.4426763,1.453793,1.794644,1
1752550670.4426763,1.366729,1.805118,1
1752550670.4436696,1.372369,1.715688,1
1752550670.4436696,1.419904,1.828483,1
1752550670.4436696,1.472323,1.802701,1
1752550670.4446762,1.498911,1.778531,1
1752550670.4546373,1.531943,1.782559,1
1752550670.4576294,1.532749,1.769668,1
1752550670.4645774,1.556919,1.6891,1
1752550670.473601,1.521469,1.6891,1
1752550670.4745913,1.448958,1.728579,1
1752550670.4765782,1.342559,1.747915,1
1752550670.4795709,1.345782,1.882513,1
1752550670.4805691,1.461849,1.651234,1
1752550670.4805691,1.414264,1.589146,1
1752550670.4815755,1.369952,1.811563,1
1752550670.4815755,1.509384,1.787393,1
1752550670.4815755,1.596397,1.681044,1
1752550670.4815755,1.581895,1.619762,1
1752550670.4815755,1.491659,1.540806,1
1752550670.4825623,1.413458,1.588341,1
1752550670.4825623,1.349004,1.669764,1
1752550670.4825623,1.364312,1.709242,1
1752550670.4825623,1.402985,1.750332,1
1752550670.483563,1.461044,1.618956,1
1752550670.494531,1.483603,1.686683,1
1752550670.497522,1.526303,1.698769,1
1752550670.504505,1.562559,1.737441,1
1752550670.5094922,1.55853,1.681044,1
1752550670.5144458,1.493271,1.647961,1
1752550670.5174754,1.389288,1.739052,1
1752550670.5204637,1.372369,1.588341,1
1752550670.5204637,1.309526,1.922797,1
1752550670.5204637,1.315971,1.767251,1
1752550670.5204637,1.535972,1.42071,1
1752550670.521458,1.535166,1.581895,1
1752550670.521458,1.464266,1.72455,1
1752550670.521458,1.560948,1.554502,1
1752550670.521458,1.598009,1.531943,1
1752550670.521458,1.539194,1.479574,1
1752550670.5224547,1.367535,1.639098,1
1752550670.5224547,1.297441,1.960664,1
1752550670.5224547,1.34981,1.980806,1
1752550670.5224547,1.538389,1.600426,1
1752550670.5234566,1.634264,1.384454,1
1752550670.5343919,1.274076,1.660902,1
1752550670.5413995,1.518247,1.686683,1
1752550670.545394,1.484408,1.723745,1
1752550670.552377,1.566587,1.614122,1
1752550670.555371,1.482797,1.690712,1
1752550670.5583591,1.436823,1.87929,1
1752550670.5593565,1.34417,1.839762,1
1752550670.5593565,1.392511,1.484408,1
1752550670.5593565,1.345782,1.632653,1
1752550670.5603557,1.461044,1.593175,1
1752550670.5603557,1.548862,1.52872,1
1752550670.5603557,1.502939,1.577867,1
1752550670.5603557,1.547251,1.540806,1
1752550670.5603557,1.606871,1.523081,1
1752550670.561351,1.532749,1.608482,1
1752550670.561351,1.381231,1.710854,1
1752550670.561351,1.336113,1.773696,1
1752550670.561351,1.538389,1.634264,1
1752550670.5623484,1.416681,1.544028,1
1752550670.573321,1.29583,1.602843,1
1752550670.5783067,1.342559,1.51019,1
1752550670.583262,1.493271,1.402179,1
1752550670.591271,1.618151,1.695546,1
1752550670.5932662,1.632653,1.612511,1
1752550670.5962262,1.47474,1.669764,1
1752550670.5982523,1.405402,1.968721,1
1752550670.5982523,1.338531,1.963081,1
1752550670.5982523,1.361089,1.763223,1
1752550670.5982523,1.499716,1.789004,1
1752550670.59925,1.563365,1.632653,1
1752550670.59925,1.509384,1.717299,1
1752550670.59925,1.388482,1.481991,1
1752550670.59925,1.527915,1.199904,1
1752550670.6002488,1.466683,1.581895,1
1752550670.6002488,1.418293,1.967109,1
1752550670.6002488,1.576255,1.35545,1
1752550670.6002488,1.419904,1.589146,1
1752550670.6002488,1.353838,1.672987,1
1752550670.6121833,1.394928,1.564976,1
1752550670.6191645,1.426349,1.436823,1
1752550670.6221895,1.356255,1.678627,1
1752550670.6301615,1.515024,1.948579,1
1752550670.632165,1.608482,1.692323,1
1752550670.635158,1.582701,1.779336,1
1752550670.6371527,1.415875,1.428766,1
1752550670.6371527,1.286162,1.334502,1
1752550670.6381457,1.440046,1.729384,1
1752550670.6381457,1.328057,1.786587,1
1752550670.6381457,1.56981,1.523081,1
1752550670.6381457,1.620568,1.822037,1
1752550670.6381457,1.544028,1.465878,1
1752550670.639147,1.374786,1.397345,1
1752550670.639147,1.246683,1.508579,1
1752550670.639147,1.493271,1.523081,1
1752550670.639147,1.547251,1.655262,1
1752550670.639147,1.412653,1.701186,1
1752550670.6401427,1.324834,1.685072,1
1752550670.6401427,1.427961,1.677015,1
1752550670.6500823,1.461849,1.763223,1
1752550670.6521082,1.523081,1.713271,1
1752550670.6600873,1.573033,1.768057,1
1752550670.663079,1.547251,1.651234,1
1752550670.6690652,1.607677,1.387677,1
1752550670.6710265,1.554502,1.37962,1
1752550670.6740494,1.519858,1.701991,1
1752550670.6760128,1.311138,1.447347,1
1752550670.6770442,1.264408,1.453793,1
1752550670.6770442,1.250712,1.627819,1
1752550670.6770442,1.318389,1.711659,1
1752550670.6770442,1.595592,1.72455,1
1752550670.6770442,1.610094,1.214406,1
1752550670.6780388,1.602037,1.722939,1
1752550670.6780388,1.666541,1.967915,1
1752550670.6780388,1.612511,1.549668,1
1752550670.6780388,1.484408,0.9122271,1
1752550670.679037,1.299052,1.533555,1
1752550670.679037,1.162037,1.787393,1
1752550670.6900072,1.383648,1.928437,1
1752550670.6929674,1.437629,2.007393,1
1752550670.7009795,1.537583,1.81962,1
1752550670.7029727,1.465072,1.595592,1
1752550670.709954,1.435212,1.581089,1
1752550670.7129462,1.612511,1.753554,1
1752550670.7159255,1.556113,1.661707,1
1752550670.7159255,1.397345,1.796255,1
1752550670.7169373,1.395734,1.820426,1
1752550670.7169373,1.440851,1.473935,1
1752550670.7169373,1.389288,1.408624,1
1752550670.7169373,1.495688,1.835734,1
1752550670.7179005,1.509384,2.334598,1
1752550670.7179005,1.483603,1.256352,1
1752550670.7179005,1.478769,1.502939,1
1752550670.7179005,1.564976,1.818814,1
1752550670.7179005,1.477157,1.963081,1
1752550670.7189293,1.464266,1.286967,1
1752550670.7189293,1.338531,1.631847,1
1752550670.7199237,1.316777,1.632653,1
1752550670.7288704,1.406207,1.529526,1
1752550670.7309015,1.477157,1.669764,1
1752550670.73888,1.56981,1.506162,1
1752550670.740879,1.522275,1.692323,1
1752550670.7488515,1.560948,1.712465,1
1752550670.7498164,1.638293,1.423932,1
1752550670.7528393,1.467489,1.684266,1
1752550670.7558355,1.318389,1.688295,1
1752550670.7558355,1.289384,1.661707,1
1752550670.7558355,1.35545,1.70038,1
1752550670.7558355,1.466683,1.710854,1
1752550670.7568297,1.486825,1.744692,1
1752550670.7568297,1.497299,1.728579,1
1752550670.7568297,1.502939,1.70602,1
1752550670.7568297,1.580284,1.606066,1
1752550670.7578254,1.581089,1.572227,1
1752550670.7578254,1.467489,1.614122,1
1752550670.7578254,1.398956,1.693935,1
1752550670.7578254,1.390094,1.664124,1
1752550670.7648098,1.321611,1.662513,1
1752550670.769793,1.370758,1.747915,1
1752550670.776775,1.472323,1.835734,1
1752550670.7787733,1.536777,1.803506,1
1752550670.7867587,1.627013,1.591563,1
1752550670.7887452,1.621373,1.613317,1
1752550670.7907321,1.452987,1.696352,1
1752550670.7937293,1.460238,1.656873,1
1752550670.7937293,1.381231,1.593175,1
1752550670.7947304,1.336113,1.716494,1
1752550670.7947304,1.369146,1.840568,1
1752550670.7947304,1.407013,1.838956,1
1752550670.7947304,1.472323,1.764028,1
1752550670.7947304,1.524692,1.660902,1
1752550670.795724,1.555308,1.665736,1
1752550670.795724,1.579478,1.827677,1
1752550670.795724,1.482797,1.88493,1
1752550670.795724,1.48038,1.70038,1
1752550670.7966905,1.334502,1.789004,1
1752550670.8076942,1.305498,1.931659,1
1752550670.8096552,1.369146,1.800284,1
1752550670.8176653,1.511801,1.651234,1
1752550670.8236685,1.563365,1.502939,1
1752550670.826609,1.407819,1.65929,1
1752550670.829633,1.537583,1.709242,1
1752550670.83163,1.609288,1.686683,1
1752550670.832593,1.522275,1.720522,1
1752550670.832593,1.408624,1.687489,1
1752550670.832593,1.364312,1.758389,1
1752550670.832593,1.34417,1.630236,1
1752550670.8336227,1.392511,1.802701,1
1752550670.8336227,1.437629,1.701991,1
1752550670.8336227,1.53436,1.70038,1
1752550670.8336227,1.554502,1.6891,1
1752550670.8336227,1.506162,1.692323,1
1752550670.8346238,1.560948,1.706825,1
1752550670.8346238,1.523081,1.680238,1
1752550670.8346238,1.432795,1.669764,1
1752550670.8465893,1.342559,1.6891,1
1752550670.8535697,1.340948,1.717299,1
1752550670.8565612,1.392511,1.747915,1
1752550670.8635445,1.479574,1.686683,1
1752550670.8655372,1.512607,1.683461,1
1752550670.8685312,1.47474,1.717299,1
1752550670.8705237,1.531943,1.717299,1
1752550670.8705237,1.596397,1.642321,1
1752550670.8705237,1.455404,1.667347,1
1752550670.8715236,1.390094,1.781753,1
1752550670.8715236,1.394122,1.573838,1
1752550670.8715236,1.264408,1.715688,1
1752550670.8715236,1.374786,1.837345,1
1752550670.8715236,1.491659,1.544834,1
1752550670.872518,1.539194,1.621373,1
1752550670.872518,1.544834,1.655262,1
1752550670.872518,1.597203,1.863177,1
1752550670.872518,1.627013,1.581895,1
1752550670.8735158,1.3909,1.65929,1
1752550670.8844554,1.347393,1.73583,1
1752550670.8914678,1.32564,1.756777,1
1752550670.893463,1.398956,1.57545,1
1752550670.9014487,1.407819,1.625402,1
1752550670.9024386,1.458627,1.726967,1
1752550670.905399,1.519858,1.643932,1
1752550670.9083917,1.527915,1.794644,1
1752550670.9093883,1.590758,1.682655,1
1752550670.9093883,1.549668,1.652845,1
1752550670.9093883,1.466683,1.625402,1
1752550670.9093883,1.382843,1.669764,1
1752550670.9103847,1.332085,1.689906,1
1752550670.9103847,1.37962,1.650428,1
1752550670.9103847,1.418293,1.62379,1
1752550670.9103847,1.436017,1.633458,1
1752550670.9103847,1.457015,1.59398,1
1752550670.911382,1.581089,1.91474,1
1752550670.911382,1.610899,1.685878,1
1752550670.911382,1.560948,1.502939,1
1752550670.9223528,1.431183,1.600426,1
1752550670.9253452,1.389288,1.679432,1
1752550670.932353,1.349004,1.679432,1
1752550670.9403443,1.408624,1.78981,1
1752550670.9423325,1.408624,1.953413,1
1752550670.9453254,1.512607,1.846207,1
1752550670.9472868,1.56981,1.554502,1
1752550670.9472868,1.529526,1.741469,1
1752550670.9483109,1.557725,1.455404,1
1752550670.9483109,1.471517,1.502133,1
1752550670.9483109,1.430378,1.452181,1
1752550670.9483109,1.347393,1.501328,1
1752550670.9483109,1.350616,1.452987,1
1752550670.9492807,1.419904,1.593175,1
1752550670.9492807,1.432795,1.702797,1
1752550670.9492807,1.54564,1.750332,1
1752550670.9492807,1.529526,1.668153,1
1752550670.9492807,1.584312,1.861565,1
1752550670.9503102,1.468295,1.732607,1
1752550670.9612818,1.477157,1.457015,1
1752550670.9662523,1.42071,1.56981,1
1752550670.970261,1.376397,1.585924,1
1752550670.972254,1.271659,1.680238,1
1752550670.9792333,1.371563,1.725356,1
1752550670.981228,1.542417,1.815592,1
1752550670.984193,1.610094,1.62379,1
1752550670.9862182,1.622179,1.611705,1
1752550670.9862182,1.453793,1.490854,1
1752550670.9862182,1.426349,1.478769,1
1752550670.9862182,1.427155,1.661707,1
1752550670.9872117,1.419098,1.773696,1
1752550670.9872117,1.387677,1.745498,1
1752550670.9872117,1.407013,1.769668,1
1752550670.9872117,1.435212,1.603648,1
1752550670.9872117,1.429572,1.743886,1
1752550670.9882112,1.542417,1.900238,1
1752550670.9882112,1.610094,1.735024,1
1752550670.9892054,1.674598,1.556919,1
1752550670.999184,1.496493,1.494076,1
1752550671.0021756,1.426349,1.498105,1
1752550671.009122,1.444124,1.542417,1
1752550671.0171006,1.300664,1.571421,1
1752550671.0191264,1.274076,1.785782,1
1752550671.0221188,1.202321,1.81962,1
1752550671.024113,1.458627,1.56417,1
1752550671.024113,1.652039,1.596397,1
1752550671.024113,1.539194,1.594786,1
1752550671.0251133,1.595592,1.600426,1
1752550671.0251133,1.639098,1.662513,1
1752550671.0251133,1.67621,2.001753,1
1752550671.0251133,1.59398,1.832511,1
1752550671.0251133,1.223269,1.465072,1
1752550671.0261116,1.175733,1.258769,1
1752550671.0261116,1.173316,1.490854,1
1752550671.0261116,1.234548,1.677821,1
1752550671.0261116,1.461044,1.709242,1
1752550671.0271053,1.602037,1.82526,1
1752550671.0370846,1.732607,1.554502,1
1752550671.040038,1.674598,1.431989,1
1752550671.046055,1.498911,1.527915,1
1752550671.049046,1.388482,1.639098,1
1752550671.0559957,1.344976,1.642321,1
1752550671.0580208,1.416681,1.666541,1
1752550671.0599854,1.401373,1.631847,1
1752550671.0620115,1.448153,1.771279,1
1752550671.0629773,1.570616,1.863983,1
1752550671.0629773,1.606871,1.681044,1
1752550671.0629773,1.549668,1.598009,1
1752550671.0639746,1.508579,1.469906,1
1752550671.0639746,1.446542,1.493271,1
1752550671.0639746,1.186207,1.499716,1
1752550671.0639746,1.289384,1.531943,1
1752550671.0639746,1.315166,1.55128,1
1752550671.0649724,1.441657,1.622985,1
1752550671.0649724,1.505356,2.003365,1
1752550671.0649724,1.652039,1.934882,1
1752550671.0769403,1.595592,1.214406,1
1752550671.0839553,1.631847,1.53436,1
1752550671.0869467,1.40943,1.544834,1
1752550671.093927,1.468295,1.755166,1
1752550671.0958896,1.386065,1.689906,1
1752550671.0978842,1.465878,1.581089,1
1752550671.1009078,1.542417,1.878485,1
1752550671.1009078,1.523886,1.55853,1
1752550671.1009078,1.336113,1.332085,1
1752550671.1009078,1.225685,1.533555,1
1752550671.101908,1.417487,1.881707,1
1752550671.101908,1.726967,1.84379,1
1752550671.101908,1.680238,1.407819,1
1752550671.101908,1.406207,1.55128,1
1752550671.1029048,1.062939,1.564976,1
1752550671.1029048,1.340948,1.687489,1
1752550671.1029048,1.518247,1.720522,1
1752550671.1029048,1.512607,1.654456,1
1752550671.1029048,1.513413,1.780142,1
1752550671.1138406,1.508579,1.686683,1
1752550671.1158698,1.633458,1.653651,1
1752550671.123848,1.585924,1.693129,1
1752550671.131832,1.508579,1.675404,1
1752550671.1337879,1.393317,1.702797,1
1752550671.1347861,1.330474,1.695546,1
1752550671.1377773,1.350616,1.672987,1
1752550671.1397722,1.402985,1.698769,1
1752550671.140769,1.467489,1.690712,1
1752550671.140769,1.506162,1.638293,1
1752550671.140769,1.538389,1.643932,1
1752550671.140769,1.606066,1.621373,1
1752550671.140769,1.537583,1.622179,1
1752550671.1417663,1.427155,1.689906,1
1752550671.1417663,1.406207,1.502133,1
1752550671.1417663,1.360284,1.824454,1
1752550671.1417663,1.349004,1.951801,1
1752550671.1417663,1.393317,1.419098,1
1752550671.142764,1.448153,1.537583,1
1752550671.154732,1.554502,1.506967,1
1752550671.1617131,1.503745,1.610094,1
1752550671.164705,1.577061,1.704408,1
1752550671.172684,1.53436,1.774502,1
1752550671.1746783,1.51019,1.615734,1
1752550671.1776705,1.393317,1.540806,1
1752550671.1786675,1.342559,1.667347,1
1752550671.179665,1.350616,1.685878,1
1752550671.179665,1.40943,1.6891,1
1752550671.179665,1.47474,1.673793,1
1752550671.179665,1.481186,1.673793,1
1752550671.179665,1.491659,1.699574,1
1752550671.1806622,1.559336,1.682655,1
1752550671.1806622,1.572227,1.672181,1
1752550671.1806622,1.494076,1.753554,1
1752550671.1806622,1.387677,1.895404,1
1752550671.1806622,1.356255,1.847013,1
1752550671.18166,1.383648,1.717299,1
1752550671.18166,1.408624,1.712465,1
1752550671.1926305,1.529526,1.71891,1
1752550671.1956224,1.523081,1.768057,1
1752550671.2036014,1.492465,1.809952,1
1752550671.2115798,1.503745,1.82526,1
1752550671.2135744,1.529526,1.669764,1
1752550671.2165663,1.458627,1.650428,1
1752550671.2195585,1.400568,1.893793,1
1752550671.2195585,1.343365,1.758389,1
1752550671.2195585,1.465072,1.753554,1
1752550671.2195585,1.411847,2.016255,1
1752550671.2195585,1.392511,1.466683,1
1752550671.2205558,1.541611,1.722939,1
1752550671.2205558,1.57545,1.776114,1
1752550671.2205558,1.550474,1.683461,1
1752550671.2205558,1.498911,1.693935,1
1752550671.2215528,1.467489,1.716494,1
1752550671.2215528,1.402985,1.729384,1
1752550671.2215528,1.345782,1.735024,1
1752550671.2215528,1.399762,1.713271,1
1752550671.2215528,1.446542,1.713271,1
1752550671.233521,1.484408,1.736635,1
1752550671.2365139,1.464266,1.60526,1
1752550671.2434945,1.521469,1.603648,1
1752550671.2504754,1.56981,1.682655,1
1752550671.253477,1.518247,1.822037,1
1752550671.2564595,1.440851,1.809146,1
1752550671.2594514,1.397345,1.78981,1
1752550671.2594514,1.387677,1.89057,1
1752550671.260449,1.386871,1.996114,1
1752550671.260449,1.517441,1.542417,1
1752550671.260449,1.500522,1.693129,1
1752550671.260449,1.402179,1.947773,1
1752550671.260449,1.55853,1.576255,1
1752550671.2614465,1.535166,1.709242,1
1752550671.2614465,1.562559,1.510996,1
1752550671.2614465,1.47474,1.47474,1
1752550671.2614465,1.263603,1.685878,1
1752550671.2614465,1.377203,1.826065,1
1752550671.2624435,1.497299,1.677821,1
1752550671.2624435,1.401373,1.642321,1
1752550671.2744117,1.452987,1.786587,1
1752550671.28239,1.511801,1.611705,1
1752550671.2853825,1.583507,1.56981,1
1752550671.293361,1.50455,1.513413,1
1752550671.2953558,1.51583,1.407013,1
1752550671.2983475,1.486825,1.506162,1
1752550671.3003433,1.356255,1.640709,1
1752550671.3003433,1.343365,1.766445,1
1752550671.3003433,1.401373,1.859149,1
1752550671.3013406,1.464266,1.855875,1
1752550671.3013406,1.529526,1.692323,1
1752550671.3013406,1.506162,1.716494,1
1752550671.3013406,1.569004,1.635875,1
1752550671.3023381,1.568199,1.733413,1
1752550671.3023381,1.398956,1.921186,1
1752550671.3023381,1.432795,1.721327,1
1752550671.3023381,1.466683,1.307109,1
1752550671.3023381,1.278105,1.532749,1
1752550671.3033354,1.354644,1.602037,1
1752550671.3033354,1.399762,1.585118,1
1752550671.313343,1.519858,1.654456,1
1752550671.3153367,1.555308,1.684266,1
1752550671.3242784,1.627013,1.640709,1
1752550671.326272,1.48602,1.673793,1
1752550671.3342514,1.440046,1.747915,1
1752550671.3362792,1.479574,1.678627,1
1752550671.3392384,1.45057,1.758389,1
1752550671.341265,1.386871,1.303886,1
1752550671.341265,1.384454,1.521469,1
1752550671.34223,1.392511,1.626207,1
1752550671.34223,1.404596,1.731801,1
1752550671.34223,1.547251,1.793033,1
1752550671.343227,1.631847,1.73583,1
1752550671.343227,1.60526,1.601231,1
1752550671.343227,1.45057,1.669764,1
1752550671.343227,1.347393,1.673793,1
1752550671.3442242,1.347393,1.687489,1
1752550671.3442242,1.440046,1.713271,1
1752550671.3442242,1.490048,1.59962,1
1752550671.3452213,1.31436,1.681044,1
1752550671.3452213,1.424738,1.607677,1
1752550671.356193,1.477157,1.59398,1
1752550671.3591852,1.597203,1.622985,1
1752550671.3661664,1.622179,1.693129,1
1752550671.369159,1.469906,1.705214,1
1752550671.3771374,1.407013,1.672181,1
1752550671.380129,1.464266,1.833317,1
1752550671.3831341,1.419098,1.779336,1
1752550671.3831341,1.384454,1.644738,1
1752550671.3831341,1.255546,1.44493,1
1752550671.3841176,1.577061,1.743886,1
1752550671.3841176,1.556113,1.685878,1
1752550671.3841176,1.612511,1.699574,1
1752550671.3841176,1.473935,1.741469,1
1752550671.3841176,1.36834,1.270854,1
1752550671.385115,1.244266,1.369146,1
1752550671.385115,1.300664,1.544028,1
1752550671.385115,1.478769,1.692323,1
1752550671.385115,1.411847,1.55128,1
1752550671.3861122,1.55853,1.625402,1
1752550671.3861122,1.556113,1.600426,1
1752550671.397084,1.571421,1.692323,1
1752550671.400075,1.674598,1.766445,1
1752550671.4070568,1.452987,1.652845,1
1752550671.4090512,1.395734,1.726162,1
1752550671.4170327,1.184596,1.527915,1
1752550671.4210527,1.315166,1.536777,1
1752550671.4220514,1.373175,1.556919,1
1752550671.4240117,1.492465,1.764028,1
1752550671.4250093,1.59398,1.732607,1
1752550671.4250093,1.386871,1.652845,1
1752550671.4250093,1.600426,1.656873,1
1752550671.4250093,1.686683,1.880096,1
1752550671.4250093,1.696352,1.728579,1
1752550671.4260392,1.245878,1.282939,1
1752550671.4260392,1.250712,1.606871,1
1752550671.4260392,1.399762,2.025118,1
1752550671.4260392,1.444124,1.874456,1
1752550671.4260392,1.470712,1.710048,1
1752550671.4270382,1.467489,1.56417,1
1752550671.4270382,1.457821,1.660096,1
1752550671.4280002,1.658485,1.702797,1
1752550671.438971,1.625402,1.274882,1
1752550671.4469502,1.311138,0.9976287,1
1752550671.449942,1.246683,1.614122,1
1752550671.4589179,1.1709,1.967109,1
1752550671.4599156,1.40943,1.822843,1
1752550671.4629076,1.502133,1.791421,1
1752550671.4658985,1.567393,1.946161,1
1752550671.4658985,1.654456,1.93891,1
1752550671.466899,1.337725,1.519052,1
1752550671.466899,1.517441,1.348199,1
1752550671.466899,1.770474,1.482797,1
1752550671.466899,1.647155,1.646349,1
1752550671.466899,1.28455,1.309526,1
1752550671.4678962,1.2491,1.595592,1
1752550671.4678962,1.154786,1.834928,1
1752550671.4678962,1.278105,1.851847,1
1752550671.4678962,1.590758,1.715688,1
1752550671.4688933,1.562559,1.764834,1
1752550671.4688933,1.628624,1.799478,1
1752550671.4688933,1.658485,1.720522,1
1752550671.4699237,1.572227,1.583507,1
1752550671.4808953,1.482797,1.579478,1
1752550671.4888737,1.396539,1.643126,1
1752550671.4908671,1.214406,1.658485,1
1752550671.492827,1.345782,1.690712,1
1752550671.500806,1.393317,1.712465,1
1752550671.5028327,1.51019,1.634264,1
1752550671.505825,1.505356,1.691518,1
1752550671.5078201,1.519858,1.685878,1
1752550671.5078201,1.535972,1.684266,1
1752550671.5078201,1.62379,1.51019,1
1752550671.5088174,1.514218,1.547251,1
1752550671.5088174,1.344976,1.663319,1
1752550671.5088174,1.306304,1.685878,1
1752550671.5088174,1.360284,1.692323,1
1752550671.5088174,1.395734,1.725356,1
1752550671.5098166,1.465072,1.682655,1
1752550671.5098166,1.537583,1.563365,1
1752550671.5098166,1.567393,1.466683,1
1752550671.5098166,1.711659,1.67057,1
1752550671.510812,1.497299,1.845402,1
1752550671.5227473,1.396539,1.921186,1
1752550671.5257437,1.386871,1.731801,1
1752550671.5327237,1.381231,1.56417,1
1752550671.5357518,1.378009,1.499716,1
1752550671.5407367,1.34417,1.63507,1
1752550671.5437324,1.401373,1.67057,1
1752550671.5467207,1.560142,1.652845,1
1752550671.5496798,1.567393,1.627013,1
1752550671.5507112,1.640709,1.550474,1
1752550671.5507112,1.567393,1.607677,1
1752550671.5507112,1.497299,1.667347,1
1752550671.5507112,1.394122,1.660096,1
1752550671.5516744,1.421515,1.805118,1
1752550671.5516744,1.490854,1.70602,1
1752550671.5516744,1.588341,1.535166,1
1752550671.5516744,1.574644,1.710048,1
1752550671.5516744,1.607677,1.937299,1
1752550671.5526707,1.483603,1.893793,1
1752550671.5536685,1.412653,1.549668,1
1752550671.5646853,1.361089,1.517441,1
1752550671.5726497,1.416681,1.598009,1
1752550671.5746443,1.323223,1.581089,1
1752550671.5835917,1.316777,1.614928,1
1752550671.5845873,1.485214,1.683461,1
1752550671.5886087,1.608482,1.682655,1
1752550671.5916069,1.615734,1.603648,1
1752550671.5916069,1.571421,1.706825,1
1752550671.5916069,1.48602,1.658485,1
1752550671.5925965,1.398956,1.697963,1
1752550671.5925965,1.341753,1.693129,1
1752550671.5925965,1.336919,1.674598,1
1752550671.5925965,1.410236,1.67621,1
1752550671.5925965,1.419098,1.709242,1
1752550671.5935946,1.490048,1.711659,1
1752550671.5935946,1.543223,1.672987,1
1752550671.5935946,1.573033,1.647155,1
1752550671.5935946,1.573033,1.669764,1
1752550671.594593,1.517441,1.684266,1
1752550671.594593,1.402179,1.751943,1
1752550671.6045325,1.461044,1.650428,1
1752550671.6075242,1.330474,1.544028,1
1752550671.6145058,1.197487,1.72455,1
1752550671.6174974,1.395734,1.988057,1
1752550671.6254761,1.522275,2.065452,1
1752550671.6274707,1.669764,1.407013,1
1752550671.6304948,1.570616,1.499716,1
1752550671.6334546,1.548862,1.595592,1
1752550671.6334546,1.440046,1.672987,1
1752550671.6334546,1.396539,1.718105,1
1752550671.6344523,1.390094,1.628624,1
1752550671.6344523,1.412653,1.851847,1
1752550671.6344523,1.392511,1.628624,1
1752550671.6344523,1.478769,1.627819,1
1752550671.635449,1.553697,1.633458,1
1752550671.635449,1.595592,1.639098,1
1752550671.635449,1.519858,1.560142,1
1752550671.635449,1.437629,1.751137,1
1752550671.635449,1.43924,1.705214,1
1752550671.6364462,1.407013,1.842985,1
1752550671.648416,1.336919,1.771279,1
1752550671.650409,1.344976,1.618151,1
1752550671.6573906,1.465878,1.908295,1
1752550671.6593854,1.502133,1.971943,1
1752550671.6673987,1.525498,1.56417,1
1752550671.6703882,1.643932,1.344976,1
1752550671.6723516,1.532749,1.586729,1
1752550671.6753433,1.47474,1.664124,1
1752550671.6753433,1.410236,1.627013,1
1752550671.6763399,1.34417,1.695546,1
1752550671.6763399,1.318389,1.877679,1
1752550671.6763399,1.428766,1.706825,1
1752550671.6763399,1.510996,1.776114,1
1752550671.6763399,1.650428,1.317583,1
1752550671.6773374,1.316777,1.742275,1
1752550671.6773374,1.479574,1.829288,1
1752550671.6773374,1.589146,1.56417,1
1752550671.6773374,1.547251,1.718105,1
1752550671.6773374,1.44493,1.668153,1
1752550671.6783347,1.369146,1.494882,1
1752550671.6783347,1.43924,1.561753,1
1752550671.6893055,1.440046,1.507773,1
1752550671.6913002,1.357867,1.712465,1
1752550671.699278,1.458627,1.721327,1
1752550671.7012732,1.562559,1.589146,1
1752550671.707294,1.622179,1.723745,1
1752550671.7112787,1.580284,1.693935,1
1752550671.7132733,1.431183,1.821231,1
1752550671.717231,1.351421,1.621373,1
1752550671.717231,1.259574,1.838151,1
1752550671.7182279,1.367535,1.880902,1
1752550671.7182279,1.438434,1.531943,1
1752550671.7182279,1.478769,1.703603,1
1752550671.7182279,1.463461,1.703603,1
1752550671.7192256,1.515024,1.682655,1
1752550671.7192256,1.589146,1.556919,1
1752550671.7192256,1.532749,1.537583,1
1752550671.7192256,1.51019,1.589952,1
1752550671.7192256,1.406207,1.595592,1
1752550671.720223,1.332085,1.566587,1
1752550671.720223,1.38526,1.805118,1
1752550671.720223,1.436017,1.806729,1
1752550671.731764,1.54564,2.091234,1
1752550671.734756,1.447347,1.488437,1
1752550671.7417378,1.425544,1.527915,1
1752550671.7517116,1.583507,1.594786,1
1752550671.7527082,1.53436,1.585924,1
1752550671.7556999,1.457821,1.621373,1
1752550671.758692,1.394122,1.637487,1
1752550671.758692,1.364312,1.673793,1
1752550671.7596896,1.400568,1.657679,1
1752550671.7596896,1.350616,1.660096,1
1752550671.7596896,1.452987,1.571421,1
1752550671.7596896,1.577867,1.431989,1
1752550671.7606866,1.561753,1.717299,1
1752550671.7606866,1.531138,1.772891,1
1752550671.7606866,1.525498,1.786587,1
1752550671.7606866,1.540806,1.526303,1
1752550671.7616847,1.360284,1.509384,1
1752550671.7616847,1.216823,1.834122,1
1752550671.7616847,1.245878,1.650428,1
1752550671.7616847,1.526303,1.675404,1
1752550671.762681,1.341753,1.716494,1
1752550671.7736514,1.535972,1.603648,1
1752550671.7816625,1.627013,1.701991,1
1752550671.784626,1.747109,1.693129,1
1752550671.7866175,1.640709,1.564976,1
1752550671.7946343,1.495688,1.818009,1
1752550671.7975879,1.134644,2.017061,1
1752550671.8006124,1.236965,1.647155,1
1752550671.8015773,1.342559,1.21924,1
1752550671.8015773,1.423127,1.336113,1
1752550671.8015773,1.427155,1.543223,1
1752550671.8015773,1.666541,1.606066,1
1752550671.8025742,1.608482,1.681044,1
1752550671.8025742,1.665736,1.831705,1
1752550671.8025742,1.562559,1.930854,1
1752550671.8025742,1.492465,1.714882,1
1752550671.8025742,1.286162,1.555308,1
1752550671.8035712,1.236965,1.508579,1
1752550671.8035712,1.207961,1.73583,1
1752550671.8035712,1.28455,1.767251,1
1752550671.8035712,1.375592,1.560948,1
1752550671.804571,1.62943,1.549668,1
1752550671.8155723,1.665736,1.633458,1
1752550671.8185334,1.586729,1.673793,1
1752550671.8266845,1.531943,1.511801,1
1752550671.8346634,1.491659,1.647961,1
1752550671.8366578,1.490854,1.769668,1
1752550671.8396497,1.317583,1.544028,1
1752550671.8426414,1.312749,1.561753,1
1752550671.8426414,1.394122,1.716494,1
1752550671.843639,1.687489,1.793033,1
1752550671.843639,1.537583,1.577061,1
1752550671.843639,1.45057,1.513413,1
1752550671.843639,1.382843,1.533555,1
1752550671.843639,1.455404,1.725356,1
1752550671.8446372,1.394122,1.93891,1
1752550671.8446372,1.371563,1.722133,1
1752550671.8446372,1.416681,1.531138,1
1752550671.8446372,1.43924,1.869622,1
1752550671.8446372,1.592369,1.408624,1
1752550671.8456335,1.535972,1.402179,1
1752550671.8456335,1.443269,1.522275,1
1752550671.857602,1.524692,1.310332,1
1752550671.8595963,1.446542,1.37398,1
1752550671.868573,1.555308,1.877679,1
1752550671.8775814,1.431989,1.846207,1
1752550671.8785799,1.446542,1.66493,1
1752550671.8805718,1.324834,1.641515,1
1752550671.8835342,1.344976,1.776919,1
1752550671.8845294,1.51583,1.678627,1
1752550671.8855593,1.549668,1.48602,1
1752550671.8855593,1.464266,1.701186,1
1752550671.8855593,1.448153,1.639098,1
1752550671.8855593,1.63507,1.549668,1
1752550671.8855593,1.554502,1.731801,1
1752550671.886559,1.431183,1.72455,1
1752550671.886559,1.299052,1.834122,1
1752550671.886559,1.338531,1.677821,1
1752550671.886559,1.468295,1.571421,1
1752550671.886559,1.509384,1.468295,1
1752550671.8875546,1.490854,1.643932,1
1752550671.8875546,1.54564,1.766445,1
1752550671.8885524,1.71891,1.457821,1
1752550671.8994946,1.526303,1.428766,1
1752550671.9075003,1.369146,1.645544,1
1752550671.9094634,1.315166,1.631041,1
1752550671.9194365,1.330474,1.620568,1
1752550671.921431,1.394122,1.592369,1
1752550671.9244232,1.455404,1.637487,1
1752550671.9264174,1.506162,1.600426,1
1752550671.9264174,1.524692,1.652039,1
1752550671.927415,1.547251,1.607677,1
1752550671.927415,1.577867,1.563365,1
1752550671.927415,1.535166,1.638293,1
1752550671.927415,1.490048,1.619762,1
1752550671.928412,1.349004,1.614122,1
1752550671.928412,1.310332,1.797061,1
1752550671.928412,1.389288,1.569004,1
1752550671.928412,1.413458,1.589146,1
1752550671.928412,1.513413,1.726162,1
1752550671.9294093,1.486825,1.667347,1
1752550671.9294093,1.489242,1.774502,1
1752550671.9294093,1.615734,1.579478,1
1752550671.9304075,1.556919,1.584312,1
1752550671.9414096,1.455404,1.807535,1
1752550671.9493563,1.424738,1.818009,1
1752550671.9533458,1.334502,1.491659,1
1752550671.9613235,1.333696,1.572227,1
1752550671.9633179,1.382037,1.71891,1
1752550671.9663115,1.531138,1.686683,1
1752550671.969303,1.488437,1.567393,1
1752550671.969303,1.530332,1.702797,1
1752550671.969303,1.612511,1.689906,1
1752550671.969303,1.511801,1.739858,1
1752550671.969303,1.472323,1.777725,1
1752550671.9703,1.35545,1.814786,1
1752550671.9703,1.321611,1.813175,1
1752550671.9703,1.390094,1.815592,1
1752550671.9703,1.434406,1.799478,1
1752550671.9712975,1.490048,1.743081,1
1752550671.9712975,1.527915,1.697157,1
1752550671.9712975,1.542417,1.721327,1
1752550671.9712975,1.576255,1.772891,1
1752550671.9712975,1.543223,1.779336,1
1752550671.9722946,1.505356,1.731801,1
1752550671.9832664,1.307109,1.807535,1
1752550671.985261,1.25474,1.851847,1
1752550671.9932387,1.413458,1.835734,1
1752550671.9952338,1.418293,1.790616,1
1752550672.003212,1.491659,1.715688,1
1752550672.0062034,1.548057,1.783365,1
1752550672.009231,1.568199,1.757583,1
1752550672.0112176,1.573033,1.713271,1
1752550672.0112176,1.535166,1.691518,1
1752550672.0112176,1.477157,1.660902,1
1752550672.0112176,1.364312,1.680238,1
1752550672.0112176,1.32,1.692323,1
1752550672.0122225,1.360284,1.753554,1
1752550672.0122225,1.407819,1.747109,1
1752550672.0122225,1.497299,1.745498,1
1752550672.0122225,1.499716,1.744692,1
1752550672.0131853,1.571421,1.838151,1
1752550672.0131853,1.613317,1.753554,1
1752550672.0131853,1.530332,1.531943,1
1752550672.0141823,1.371563,1.60526,1
1752550672.0271478,1.298247,1.584312,1
1752550672.0341294,1.356255,1.712465,1
1752550672.037121,1.423127,1.681849,1
1752550672.0451393,1.451376,1.696352,1
1752550672.04713,1.498105,1.699574,1
1752550672.0500891,1.55853,1.789004,1
1752550672.0530791,1.602037,1.892987,1
1752550672.0530791,1.539194,1.54564,1
1752550672.0541117,1.447347,1.621373,1
1752550672.0541117,1.440851,1.625402,1
1752550672.0541117,1.322417,1.745498,1
1752550672.0541117,1.348199,1.781753,1
1752550672.055074,1.447347,1.812369,1
1752550672.055074,1.518247,1.348199,1
1752550672.055074,1.447347,1.53436,1
1752550672.055074,1.472323,1.715688,1
1752550672.055074,1.604454,1.647155,1
1752550672.0560706,1.541611,1.715688,1
1752550672.0560706,1.482797,1.740664,1
1752550672.0560706,1.401373,1.750332,1
1752550672.0560706,1.332891,1.652845,1
1752550672.0670407,1.356255,1.541611,1
1752550672.0700336,1.406207,1.552085,1
1752550672.078012,1.482797,1.587535,1
1752550672.0849943,1.529526,1.643932,1
1752550672.087985,1.531943,1.756777,1
1752550672.0919745,1.525498,1.714882,1
1752550672.094967,1.548862,1.842985,1
1752550672.094967,1.443269,1.955024,1
1752550672.094967,1.32,1.683461,1
1752550672.0959642,1.34417,1.512607,1
1752550672.0959642,1.42071,1.595592,1
1752550672.0959642,1.44493,1.667347,1
1752550672.0959642,1.509384,1.63507,1
1752550672.0959642,1.497299,1.577061,1
1752550672.096961,1.460238,1.490854,1
1752550672.096961,1.573033,1.55128,1
1752550672.096961,1.549668,1.672181,1
1752550672.096961,1.430378,1.709242,1
1752550672.096961,1.386065,1.65929,1
1752550672.0979583,1.328862,1.911518,1
1752550672.0979583,1.417487,1.769668,1
1752550672.1099267,1.478769,1.515024,1
1752550672.111921,1.50455,1.464266,1
1752550672.1189027,1.530332,1.873651,1
1752550672.1218946,1.478769,1.938105,1
1752550672.12891,1.492465,1.78981,1
1752550672.130871,1.513413,1.330474,1
1752550672.1328983,1.492465,1.614122,1
1752550672.135857,1.311138,1.539194,1
1752550672.1368544,1.338531,1.625402,1
1752550672.1368544,1.370758,1.780142,1
1752550672.1368544,1.463461,1.691518,1
1752550672.1368544,1.608482,1.363507,1
1752550672.1378524,1.55853,1.457821,1
1752550672.1378524,1.548057,1.588341,1
1752550672.1378524,1.473129,1.968721,1
1752550672.1378524,1.495688,2.260426,1
1752550672.1388497,1.29019,1.384454,1
1752550672.1388497,1.270048,1.469906,1
1752550672.1388497,1.453793,1.757583,1
1752550672.1388497,1.470712,1.832511,1
1752550672.1508176,1.464266,1.642321,1
1752550672.1538093,1.562559,1.4691,1
1752550672.1608245,1.641515,1.580284,1
1752550672.1698287,1.665736,1.683461,1
1752550672.170826,1.567393,1.478769,1
1752550672.1718233,1.34417,1.311943,1
1752550672.1748562,1.287773,1.560142,1
1752550672.1764338,1.282133,1.706825,1
1752550672.1784523,1.373175,1.725356,1
1752550672.1794496,1.358672,1.751137,1
1752550672.1794496,1.394928,1.789004,1
1752550672.1794496,1.549668,1.86076,1
1752550672.1794496,1.602037,1.748721,1
1752550672.1794496,1.693935,1.778531,1
1752550672.1804466,1.714882,1.632653,1
1752550672.1804466,1.533555,1.54564,1
1752550672.1804466,1.37962,1.618956,1
1752550672.1804466,1.155592,1.658485,1
1752550672.1804466,1.289384,1.62943,1
1752550672.1814444,1.271659,1.638293,1
1752550672.1814444,1.369952,1.560142,1
1752550672.1934125,1.52872,1.520664,1
1752550672.1954072,1.531138,1.547251,1
1752550672.2023888,1.644738,1.785782,1
1752550672.2073746,1.47474,1.660096,1
1752550672.2123938,1.524692,1.660902,1
1752550672.2143564,1.560948,1.813175,1
1752550672.2173805,1.389288,1.76,1
1752550672.219375,1.313555,1.723745,1
1752550672.219375,1.427961,1.737441,1
1752550672.220372,1.54564,1.581089,1
1752550672.220372,1.581895,1.55853,1
1752550672.220372,1.391705,1.569004,1
1752550672.220372,1.280522,1.498105,1
1752550672.220372,1.527915,1.453793,1
1752550672.2213693,1.444124,1.482797,1
1752550672.2213693,1.531138,1.464266,1
1752550672.2213693,1.345782,1.362701,1
1752550672.2213693,1.431989,1.538389,1
1752550672.2223353,1.394122,1.853458,1
1752550672.2223353,1.639904,2.025923,1
1752550672.2343035,1.614122,1.792227,1
1752550672.2372956,1.460238,1.353838,1
1752550672.2433052,1.484408,1.506162,1
1752550672.2532837,1.493271,1.691518,1
1752550672.2552812,1.421515,1.807535,1
1752550672.2582724,1.34981,1.78981,1
1752550672.260266,1.282133,1.414264,1
1752550672.2612627,1.408624,1.490048,1
1752550672.2612627,1.423127,1.912323,1
1752550672.2612627,1.522275,1.809952,1
1752550672.2612627,1.561753,1.531138,1
1752550672.2612627,1.54564,1.651234,1
1752550672.2622604,1.576255,1.633458,1
1752550672.2622604,1.506967,1.621373,1
1752550672.2622604,1.452987,1.67621,1
1752550672.2622604,1.386065,1.766445,1
1752550672.2632596,1.337725,1.686683,1
1752550672.2632596,1.336113,1.646349,1
1752550672.2632596,1.42071,1.559336,1
1752550672.2632596,1.519858,1.529526,1
1752550672.2741954,1.471517,1.560142,1
1752550672.2772248,1.553697,1.609288,1
1752550672.284169,1.564976,1.614928,1
1752550672.2871616,1.502133,1.573838,1
1752550672.2951405,1.392511,1.643932,1
1752550672.2981322,1.334502,1.658485,1
1752550672.3011239,1.387677,1.695546,1
1752550672.3011239,1.440851,1.723745,1
1752550672.3011239,1.473129,1.766445,1
1752550672.3021216,1.51019,1.668959,1
1752550672.3021216,1.521469,1.594786,1
1752550672.3021216,1.600426,1.537583,1
1752550672.3021216,1.581089,1.573838,1
1752550672.303119,1.498911,1.537583,1
1752550672.303119,1.32564,1.576255,1
1752550672.303119,1.300664,1.616539,1
1752550672.303119,1.378009,1.618956,1
1752550672.303119,1.436017,1.600426,1
1752550672.3041165,1.494076,1.574644,1
1752550672.3041165,1.516635,1.606066,1
1752550672.315123,1.526303,1.635875,1
1752550672.3181102,1.612511,1.608482,1
1752550672.3250916,1.589952,1.573033,1
1752550672.334036,1.454598,1.622985,1
1752550672.3350337,1.334502,1.637487,1
1752550672.3380253,1.277299,1.714882,1
1752550672.3400195,1.427961,1.634264,1
1752550672.3410175,1.392511,1.625402,1
1752550672.3410175,1.468295,1.67621,1
1752550672.342015,1.519052,1.736635,1
1752550672.342015,1.53436,1.617345,1
1752550672.342015,1.577061,1.625402,1
1752550672.342015,1.588341,1.673793,1
1752550672.342015,1.454598,1.721327,1
1752550672.3430119,1.369952,1.731801,1
1752550672.3430119,1.304692,1.744692,1
1752550672.3430119,1.390094,1.766445,1
1752550672.3430119,1.457821,1.704408,1
1752550672.3440099,1.459432,1.753554,1
1752550672.3440099,1.466683,1.816397,1
1752550672.3549798,1.530332,1.777725,1
1752550672.3569746,1.564976,1.793838,1
1752550672.36498,1.525498,1.740664,1
1752550672.3729727,1.473129,1.750332,1
1752550672.3739612,1.37962,1.779336,1
1752550672.3759558,1.341753,1.799478,1
1752550672.3779492,1.400568,1.766445,1
1752550672.38091,1.452987,1.744692,1
1752550672.38091,1.493271,1.744692,1
1752550672.38091,1.517441,1.783365,1
1752550672.38091,1.498911,1.773696,1
1752550672.3819396,1.515024,1.714882,1
1752550672.3819396,1.531138,1.646349,1
1752550672.3819396,1.466683,1.737441,1
1752550672.3819396,1.422321,1.736635,1
1752550672.3819396,1.430378,1.647961,1
1752550672.3829055,1.344976,1.679432,1
1752550672.3829055,1.382843,1.712465,1
1752550672.3829055,1.438434,1.750332,1
1752550672.3829055,1.51019,1.73019,1
1752550672.394905,1.544028,1.721327,1
1752550672.4018886,1.57545,1.751137,1
1752550672.4038813,1.490854,1.769668,1
1752550672.4058764,1.37398,1.72455,1
1752550672.4128568,1.365924,1.663319,1
1752550672.4168475,1.421515,1.809146,1
1752550672.4198399,1.436017,1.722939,1
1752550672.4198399,1.471517,1.647961,1
1752550672.4198399,1.503745,1.693129,1
1752550672.4208355,1.51583,1.734218,1
1752550672.4208355,1.525498,1.730996,1
1752550672.4208355,1.624596,1.737441,1
1752550672.4208355,1.466683,1.770474,1
1752550672.4218345,1.304692,1.755166,1
1752550672.4218345,1.35545,1.740664,1
1752550672.4218345,1.402179,1.697963,1
1752550672.4218345,1.425544,1.701991,1
1752550672.4218345,1.463461,1.722939,1
1752550672.4228332,1.537583,1.716494,1
1752550672.4338043,1.616539,1.393317,1
1752550672.4367929,1.492465,1.570616,1
1752550672.4427772,1.455404,1.682655,1
1752550672.4487607,1.416681,1.714882,1
1752550672.4537477,1.402179,1.683461,1
1752550672.455743,1.402179,1.560142,1
1752550672.4587343,1.402179,1.714076,1
1752550672.4597337,1.457015,1.863177,1
1752550672.4597337,1.490854,1.822843,1
1752550672.4597337,1.482797,1.723745,1
1752550672.4597337,1.506162,1.713271,1
1752550672.460729,1.51583,1.640709,1
1752550672.460729,1.499716,1.482797,1
1752550672.460729,1.464266,1.502939,1
1752550672.460729,1.346587,1.562559,1
1752550672.460729,1.37962,1.715688,1
1752550672.4617262,1.419904,1.78981,1
1752550672.4617262,1.494076,1.701991,1
1752550672.4617262,1.455404,1.712465,1
1752550672.472697,1.490048,1.620568,1
1752550672.474692,1.506162,1.683461,1
1752550672.4816759,1.582701,1.730996,1
1752550672.4846334,1.577061,1.663319,1
1752550672.491641,1.48602,1.595592,1
1752550672.493647,1.290996,1.579478,1
1752550672.496633,1.289384,1.536777,1
1752550672.4986274,1.394928,1.793033,1
1752550672.4986274,1.386065,1.918769,1
1752550672.4996262,1.461849,1.706825,1
1752550672.4996262,1.523081,1.640709,1
1752550672.4996262,1.56981,1.801895,1
1752550672.4996262,1.631041,1.613317,1
1752550672.4996262,1.536777,1.428766,1
1752550672.500622,1.440046,1.495688,1
1752550672.500622,1.382037,1.610094,1
1752550672.500622,1.315971,1.699574,1
1752550672.500622,1.424738,1.563365,1
1752550672.500622,1.461044,1.646349,1
1752550672.5016203,1.495688,1.633458,1
1752550672.5125911,1.519858,1.603648,1
1752550672.514586,1.487631,1.63507,1
1752550672.5225728,1.529526,1.582701,1
1752550672.5285475,1.483603,1.556113,1
1752550672.5325055,1.506162,1.716494,1
1752550672.5355294,1.367535,1.577061,1
1752550672.5375264,1.336113,1.855875,1
1752550672.5385208,1.324028,1.638293,1
1752550672.5385208,1.394928,1.650428,1
1752550672.5385208,1.56417,1.748721,1
1752550672.5385208,1.592369,1.71891,1
1752550672.5395179,1.646349,1.729384,1
1752550672.5395179,1.609288,1.515024,1
1752550672.5395179,1.445736,1.461044,1
1752550672.5395179,1.299858,1.45057,1
1752550672.5395179,1.290996,1.619762,1
1752550672.5405223,1.334502,1.78981,1
1752550672.5405223,1.386871,1.801089,1
1752550672.5405223,1.424738,1.723745,1
1752550672.5514863,1.519858,1.686683,1
1752550672.5544457,1.626207,1.698769,1
1752550672.5614698,1.687489,1.697963,1
1752550672.56442,1.698769,1.673793,1
1752550672.5714333,1.434406,1.370758,1
1752550672.573428,1.374786,1.614928,1
1752550672.5753908,1.191041,2.011421,1
1752550672.5783827,1.150758,1.876068,1
1752550672.5783827,1.426349,1.347393,1
1752550672.5783827,1.431183,1.489242,1
1752550672.5783827,1.619762,1.487631,1
1752550672.5783827,1.662513,1.581089,1
1752550672.5794115,1.612511,1.54,1
1752550672.5794115,1.543223,1.601231,1
1752550672.5794115,1.527915,1.412653,1
1752550672.5794115,1.398956,1.586729,1
1752550672.5794115,1.257963,1.812369,1
1752550672.5803769,1.207155,1.717299,1
1752550672.5803769,1.498105,1.689906,1
1752550672.5803769,1.522275,1.928437,1
1752550672.5923777,1.519052,1.769668,1
1752550672.5943391,1.574644,1.457821,1
1752550672.6013548,1.624596,1.506162,1
1752550672.6063077,1.59398,1.658485,1
1752550672.6112943,1.495688,1.588341,1
1752550672.614287,1.332891,1.45057,1
1752550672.617278,1.329668,1.628624,1
1752550672.617278,1.309526,1.640709,1
1752550672.617278,1.48038,1.589146,1
1752550672.6182756,1.440851,1.645544,1
1752550672.6182756,1.526303,1.709242,1
1752550672.6182756,1.426349,1.421515,1
1752550672.6182756,1.552085,1.479574,1
1752550672.6182756,1.590758,1.662513,1
1752550672.6192734,1.468295,1.587535,1
1752550672.6192734,1.361895,1.636681,1
1752550672.6192734,1.282939,1.70038,1
1752550672.6192734,1.363507,1.652039,1
1752550672.6192734,1.446542,1.625402,1
1752550672.6302776,1.503745,1.660902,1
1752550672.6382565,1.585924,1.622179,1
1752550672.6402488,1.584312,1.644738,1
1752550672.64224,1.626207,1.62379,1
1752550672.6491933,1.509384,1.654456,1
1752550672.6532168,1.40943,1.63507,1
1752550672.6552143,1.339336,1.562559,1
1752550672.6561747,1.303886,1.603648,1
1752550672.6561747,1.421515,1.611705,1
1752550672.6572075,1.397345,1.652039,1
