timestamp,v1,v2,label
1752550041.3593748,1.436017,1.709242,0
1752550041.3593748,1.511801,1.693129,0
1752550041.3593748,1.544834,1.650428,0
1752550041.3593748,1.544834,1.611705,0
1752550041.3603704,1.402179,1.640709,0
1752550041.3603704,1.321611,1.692323,0
1752550041.3603704,1.410236,1.70038,0
1752550041.3743336,1.482797,1.693129,0
1752550041.3773258,1.539194,1.667347,0
1752550041.3853052,1.576255,1.626207,0
1752550041.3882966,1.498105,1.616539,0
1752550041.3942804,1.362701,1.651234,0
1752550041.3972726,1.324028,1.702797,0
1752550041.4002652,1.432795,1.705214,0
1752550041.4022589,1.516635,1.684266,0
1752550041.403257,1.538389,1.658485,0
1752550041.403257,1.571421,1.611705,0
1752550041.403257,1.455404,1.615734,0
1752550041.403257,1.336113,1.681849,0
1752550041.4042542,1.376397,1.715688,0
1752550041.4042542,1.463461,1.70602,0
1752550041.4052515,1.530332,1.683461,0
1752550041.418855,1.560948,1.643932,0
1752550041.4268656,1.536777,1.610094,0
1752550041.4288607,1.389288,1.634264,0
1752550041.4358432,1.322417,1.697963,0
1752550041.4378042,1.414264,1.710854,0
1752550041.4418318,1.489242,1.70038,0
1752550041.443823,1.539194,1.66493,0
1752550041.443823,1.573838,1.627013,0
1752550041.443823,1.492465,1.607677,0
1752550041.443823,1.361089,1.657679,0
1752550041.443823,1.331279,1.70038,0
1752550041.444818,1.443269,1.697157,0
1752550041.444818,1.51583,1.685072,0
1752550041.4557893,1.538389,1.657679,0
1752550041.45878,1.563365,1.608482,0
1752550041.460775,1.45057,1.618151,0
1752550041.4687219,1.332085,1.668153,0
1752550041.47573,1.376397,1.705214,0
1752550041.4777296,1.465878,1.696352,0
1752550041.479728,1.53436,1.66493,0
1752550041.4836817,1.560142,1.639904,0
1752550041.4836817,1.535972,1.618151,0
1752550041.4836817,1.394122,1.647155,0
1752550041.4846792,1.318389,1.697963,0
1752550041.4846792,1.419904,1.706825,0
1752550041.4846792,1.491659,1.69474,0
1752550041.4856768,1.537583,1.668153,0
1752550041.4976435,1.570616,1.624596,0
1752550041.5056577,1.498105,1.614928,0
1752550041.5086472,1.358672,1.666541,0
1752550041.5157778,1.334502,1.706825,0
1752550041.5177665,1.441657,1.702797,0
1752550041.5207584,1.511801,1.688295,0
1752550041.5227532,1.548057,1.664124,0
1752550041.5227532,1.564976,1.618956,0
1752550041.5237837,1.44493,1.624596,0
1752550041.5237837,1.326445,1.685072,0
1752550041.5237837,1.383648,1.713271,0
1752550041.5237837,1.466683,1.705214,0
1752550041.5247803,1.531943,1.673793,0
1752550041.5377455,1.564976,1.639904,0
1752550041.545692,1.535166,1.602843,0
1752550041.5486846,1.381231,1.639098,0
1752550041.5546675,1.317583,1.703603,0
1752550041.5576594,1.412653,1.713271,0
1752550041.5606515,1.492465,1.693935,0
1752550041.561649,1.543223,1.67057,0
1752550041.5626464,1.577061,1.631847,0
1752550041.5626464,1.486825,1.622985,0
1752550041.5626464,1.364312,1.654456,0
1752550041.5626464,1.338531,1.705214,0
1752550041.5636435,1.442463,1.708437,0
1752550041.5636435,1.516635,1.683461,0
1752550041.5756118,1.541611,1.642321,0
1752550041.5776064,1.560948,1.598814,0
1752550041.5845876,1.443269,1.618151,0
1752550041.5875795,1.331279,1.686683,0
1752550041.594561,1.386871,1.715688,0
1752550041.5975533,1.473129,1.693935,0
1752550041.600545,1.526303,1.663319,0
1752550041.6015432,1.557725,1.624596,0
1752550041.6015432,1.53436,1.601231,0
1752550041.6015432,1.389288,1.636681,0
1752550041.6025395,1.313555,1.70602,0
1752550041.6025395,1.413458,1.713271,0
1752550041.603537,1.499716,1.693129,0
1752550041.6155052,1.531943,1.664124,0
1752550041.6235182,1.561753,1.608482,0
1752550041.6265025,1.444124,1.631847,0
1752550041.633489,1.331279,1.685072,0
1752550041.6354525,1.386065,1.710854,0
1752550041.6384435,1.466683,1.707631,0
1752550041.6414356,1.52872,1.685072,0
1752550041.6414356,1.568199,1.643126,0
1752550041.6414356,1.52872,1.615734,0
1752550041.6414356,1.377203,1.655262,0
1752550041.6424649,1.313555,1.714076,0
1752550041.6424649,1.419098,1.71891,0
1752550041.6434307,1.500522,1.696352,0
1752550041.6553986,1.537583,1.660096,0
1752550041.663409,1.581895,1.621373,0
1752550041.665371,1.477157,1.616539,0
1752550041.6723876,1.351421,1.660096,0
1752550041.67438,1.345782,1.699574,0
1752550041.6773715,1.445736,1.70602,0
1752550041.6803653,1.526303,1.681849,0
1752550041.6803653,1.549668,1.653651,0
1752550041.6803653,1.55128,1.607677,0
1752550041.681361,1.432795,1.627819,0
1752550041.681361,1.324834,1.6891,0
1752550041.681361,1.394928,1.711659,0
1752550041.6823266,1.464266,1.703603,0
1752550041.6953232,1.529526,1.66493,0
1752550041.6973245,1.566587,1.621373,0
1752550041.705265,1.523886,1.60526,0
1752550041.7122803,1.382843,1.643932,0
1752550041.7142413,1.313555,1.701991,0
1752550041.717233,1.419098,1.711659,0
1752550041.7192273,1.498911,1.695546,0
1752550041.7192273,1.543223,1.664124,0
1752550041.7202249,1.570616,1.619762,0
1752550041.7202249,1.483603,1.614928,0
1752550041.7202249,1.351421,1.65929,0
1752550041.7202249,1.353033,1.705214,0
1752550041.7212224,1.453793,1.709242,0
1752550041.7331898,1.515024,1.680238,0
1752550041.7412002,1.548057,1.643932,0
1752550041.744195,1.555308,1.606871,0
1752550041.7511742,1.432795,1.626207,0
1752550041.7531688,1.327251,1.690712,0
1752550041.7551308,1.3909,1.718105,0
1752550041.7581532,1.478769,1.703603,0
1752550041.7581532,1.530332,1.679432,0
1752550041.7581532,1.570616,1.63507,0
1752550041.7591207,1.523081,1.612511,0
1752550041.7591207,1.371563,1.640709,0
1752550041.7591207,1.309526,1.701186,0
1752550041.760118,1.423127,1.710854,0
1752550041.7721124,1.503745,1.691518,0
1752550041.7741156,1.542417,1.653651,0
1752550041.7810614,1.571421,1.608482,0
1752550041.7830887,1.47474,1.613317,0
1752550041.7890737,1.350616,1.656873,0
1752550041.7930617,1.356255,1.704408,0
1752550041.7950249,1.452987,1.704408,0
1752550041.7960541,1.523081,1.680238,0
1752550041.7970512,1.547251,1.640709,0
1752550041.7970512,1.55128,1.609288,0
1752550041.7970512,1.427155,1.644738,0
1752550041.7970512,1.32564,1.693129,0
1752550041.7990527,1.399762,1.711659,0
1752550041.810012,1.477963,1.698769,0
1752550041.8120055,1.535972,1.677015,0
1752550041.818996,1.569004,1.635875,0
1752550041.820987,1.516635,1.609288,0
1752550041.8279686,1.375592,1.655262,0
1752550041.8299706,1.312749,1.714076,0
1752550041.832955,1.424738,1.710048,0
1752550041.8349242,1.499716,1.689906,0
1752550041.8349242,1.549668,1.658485,0
1752550041.8349242,1.571421,1.619762,0
1752550041.8359478,1.467489,1.612511,0
1752550041.8359478,1.352227,1.658485,0
1752550041.8379521,1.360284,1.696352,0
1752550041.847884,1.457821,1.701991,0
1752550041.8499098,1.524692,1.688295,0
1752550041.8578832,1.549668,1.644738,0
1752550041.863867,1.549668,1.600426,0
1752550041.8668659,1.427155,1.625402,0
1752550041.8698614,1.32564,1.6891,0
1752550041.8718538,1.394122,1.709242,0
1752550041.8738456,1.502133,1.70038,0
1752550041.8738456,1.542417,1.661707,0
1752550041.8738456,1.576255,1.609288,0
1752550041.8738456,1.463461,1.616539,0
1752550041.8748453,1.339336,1.665736,0
1752550041.8878102,1.361895,1.705214,0
1752550041.8947897,1.457015,1.705214,0
1752550041.896784,1.523886,1.678627,0
1752550041.8987477,1.556919,1.655262,0
1752550041.9047632,1.548057,1.616539,0
1752550041.9077554,1.423127,1.644738,0
1752550041.9107468,1.328057,1.698769,0
1752550041.911746,1.400568,1.721327,0
1752550041.911746,1.477963,1.703603,0
1752550041.9127414,1.531943,1.671376,0
1752550041.9127414,1.57545,1.626207,0
1752550041.9127414,1.512607,1.59962,0
1752550041.9137392,1.362701,1.653651,0
1752550041.9247108,1.316777,1.715688,0
1752550041.9277036,1.431183,1.710854,0
1752550041.934651,1.50455,1.696352,0
1752550041.937643,1.539194,1.657679,0
1752550041.943627,1.57545,1.613317,0
1752550041.9466188,1.464266,1.616539,0
1752550041.949611,1.344976,1.672987,0
1752550041.9506085,1.369146,1.707631,0
1752550041.9506085,1.451376,1.701186,0
1752550041.9516058,1.527109,1.677015,0
1752550041.9516058,1.547251,1.641515,0
1752550041.9516058,1.548057,1.607677,0
1752550041.9526029,1.419098,1.634264,0
1752550041.9636004,1.318389,1.691518,0
1752550041.971555,1.406207,1.710048,0
1752550041.9745445,1.485214,1.701991,0
1752550041.9815264,1.536777,1.672181,0
1752550041.9835207,1.566587,1.631847,0
1752550041.9865127,1.509384,1.612511,0
1752550041.9885068,1.366729,1.662513,0
1752550041.9885068,1.317583,1.714882,0
1752550041.9895046,1.431989,1.710854,0
1752550041.9895046,1.509384,1.688295,0
1752550041.9895046,1.535972,1.663319,0
1752550041.9895046,1.56981,1.615734,0
1752550041.9974825,1.460238,1.627819,0
1752550042.0025034,1.340948,1.67621,0
1752550042.0114458,1.369146,1.704408,0
1752550042.0134404,1.458627,1.702797,0
1752550042.0174305,1.527915,1.678627,0
1752550042.0224164,1.555308,1.642321,0
1752550042.0244114,1.538389,1.60526,0
1752550042.0264056,1.414264,1.620568,0
1752550042.0284004,1.326445,1.686683,0
1752550042.0293977,1.402179,1.706825,0
1752550042.0293977,1.48602,1.697963,0
1752550042.0293977,1.53436,1.678627,0
1752550042.0293977,1.573838,1.636681,0
1752550042.031392,1.502939,1.62379,0
1752550042.0433772,1.367535,1.65929,0
1752550042.0503767,1.32564,1.714882,0
1752550042.052368,1.431183,1.703603,0
1752550042.0593498,1.50455,1.687489,0
1752550042.0613472,1.549668,1.654456,0
1752550042.063341,1.56981,1.618151,0
1752550042.0663335,1.459432,1.618151,0
1752550042.0673285,1.336919,1.673793,0
1752550042.0673285,1.370758,1.711659,0
1752550042.0673285,1.459432,1.70602,0
1752550042.0673285,1.524692,1.680238,0
1752550042.0683255,1.552085,1.642321,0
1752550042.0703297,1.540806,1.606066,0
1752550042.08229,1.40943,1.642321,0
1752550042.0892375,1.326445,1.697157,0
1752550042.092257,1.407013,1.703603,0
1752550042.0982132,1.481186,1.69474,0
1752550042.1012352,1.538389,1.672987,0
1752550042.104231,1.57545,1.62943,0
1752550042.1051953,1.502939,1.612511,0
1752550042.1051953,1.353838,1.652039,0
1752550042.1051953,1.324028,1.710854,0
1752550042.106227,1.43924,1.697157,0
1752550042.106227,1.515024,1.677821,0
1752550042.106227,1.542417,1.654456,0
1752550042.1191914,1.560142,1.616539,0
1752550042.127136,1.457821,1.625402,0
1752550042.1291578,1.336113,1.67621,0
1752550042.1361449,1.399762,1.706825,0
1752550042.1381407,1.490854,1.690712,0
1752550042.141134,1.535166,1.665736,0
1752550042.1431272,1.572227,1.626207,0
1752550042.1431272,1.497299,1.613317,0
1752550042.1441233,1.357061,1.650428,0
1752550042.1441233,1.329668,1.699574,0
1752550042.1441233,1.43924,1.710048,0
1752550042.1441233,1.515024,1.691518,0
1752550042.1461194,1.542417,1.660902,0
1752550042.157056,1.571421,1.618151,0
1752550042.1650376,1.448958,1.618151,0
1752550042.167063,1.336113,1.67057,0
1752550042.174043,1.380426,1.716494,0
1752550042.1750076,1.465878,1.697963,0
1752550042.1780338,1.52872,1.672987,0
1752550042.181577,1.554502,1.642321,0
1752550042.1820872,1.53436,1.611705,0
1752550042.1820872,1.394928,1.644738,0
1752550042.1820872,1.320806,1.707631,0
1752550042.1820872,1.411847,1.714076,0
1752550042.1830807,1.490854,1.701186,0
1752550042.185076,1.539194,1.667347,0
1752550042.1958685,1.574644,1.619762,0
1752550042.1978629,1.498105,1.610094,0
1752550042.2048445,1.358672,1.656068,0
1752550042.207836,1.332085,1.702797,0
1752550042.2138462,1.437629,1.698769,0
1752550042.2168436,1.518247,1.678627,0
1752550042.2198303,1.541611,1.653651,0
1752550042.2208297,1.563365,1.619762,0
1752550042.2208297,1.455404,1.624596,0
1752550042.2208297,1.334502,1.684266,0
1752550042.2208297,1.381231,1.703603,0
1752550042.2208297,1.458627,1.701186,0
1752550042.2338002,1.531138,1.666541,0
1752550042.241779,1.565782,1.63507,0
1752550042.2447376,1.53436,1.606871,0
1752550042.251719,1.387677,1.640709,0
1752550042.2527163,1.319194,1.70602,0
1752550042.2557352,1.41507,1.71891,0
1752550042.2587261,1.489242,1.697157,0
1752550042.2587261,1.538389,1.671376,0
1752550042.2587261,1.574644,1.632653,0
1752550042.2587261,1.489242,1.622985,0
1752550042.2587261,1.357867,1.665736,0
1752550042.2596986,1.336113,1.714882,0
1752550042.2596986,1.440046,1.701991,0
1752550042.271697,1.521469,1.684266,0
1752550042.273693,1.532749,1.660902,0
1752550042.2806406,1.56417,1.612511,0
1752550042.2836332,1.444124,1.625402,0
1752550042.2896168,1.333696,1.671376,0
1752550042.292609,1.382843,1.711659,0
1752550042.2956014,1.471517,1.695546,0
1752550042.2965984,1.52872,1.67057,0
1752550042.2965984,1.566587,1.643932,0
1752550042.2965984,1.531943,1.608482,0
1752550042.2975962,1.387677,1.633458,0
1752550042.2975962,1.321611,1.695546,0
1752550042.298593,1.41507,1.710048,0
1752550042.3095639,1.495688,1.693129,0
1752550042.312556,1.542417,1.664124,0
1752550042.3195372,1.576255,1.622179,0
1752550042.3255215,1.484408,1.618151,0
1752550042.3275158,1.360284,1.66493,0
1752550042.3305347,1.342559,1.718105,0
1752550042.3325028,1.446542,1.712465,0
1752550042.3345308,1.51583,1.685878,0
1752550042.3345308,1.539194,1.664124,0
1752550042.3354948,1.560948,1.612511,0
1752550042.3354948,1.438434,1.626207,0
1752550042.3354948,1.336113,1.684266,0
1752550042.3384867,1.382843,1.709242,0
1752550042.3494887,1.469906,1.696352,0
1752550042.3564389,1.531943,1.675404,0
1752550042.3594296,1.564976,1.631847,0
1752550042.366451,1.531138,1.609288,0
1752550042.3684068,1.390094,1.642321,0
1752550042.3713977,1.308721,1.701991,0
1752550042.3734245,1.415875,1.705214,0
1752550042.3734245,1.498911,1.681849,0
1752550042.3734245,1.526303,1.664124,0
1752550042.3734245,1.577061,1.621373,0
1752550042.3734245,1.489242,1.617345,0
1752550042.375387,1.339336,1.680238,0
1752550042.3873878,1.387677,1.714882,0
1752550042.395371,1.472323,1.70038,0
1752550042.4013517,1.531138,1.67621,0
1752550042.404344,1.566587,1.637487,0
1752550042.407334,1.52872,1.613317,0
1752550042.410326,1.380426,1.654456,0
1752550042.4113233,1.313555,1.705214,0
1752550042.4113233,1.422321,1.706825,0
1752550042.4113233,1.496493,1.697157,0
1752550042.4113233,1.539194,1.666541,0
1752550042.4123228,1.573838,1.618956,0
1752550042.4123228,1.483603,1.612511,0
1752550042.4142842,1.353838,1.658485,0
1752550042.4252543,1.34417,1.710854,0
1752550042.427249,1.449764,1.705214,0
1752550042.4342303,1.517441,1.686683,0
1752550042.4372215,1.542417,1.650428,0
1752550042.4432063,1.556113,1.610094,0
1752550042.4461982,1.437629,1.627819,0
1752550042.450187,1.326445,1.684266,0
1752550042.450187,1.389288,1.705214,0
1752550042.4511847,1.473129,1.699574,0
1752550042.4511847,1.535166,1.67057,0
1752550042.4511847,1.569004,1.627819,0
1752550042.4511847,1.518247,1.608482,0
1752550042.4531791,1.380426,1.647155,0
1752550042.4641502,1.32,1.697157,0
1752550042.4661448,1.414264,1.712465,0
1752550042.4741235,1.497299,1.691518,0
1752550042.4771154,1.543223,1.669764,0
1752550042.4830995,1.580284,1.622179,0
1752550042.4860919,1.477157,1.608482,0
1752550042.4890833,1.347393,1.66493,0
1752550042.4910781,1.352227,1.70602,0
1752550042.4910781,1.454598,1.703603,0
1752550042.4910781,1.522275,1.686683,0
1752550042.4910781,1.548057,1.651234,0
1752550042.4910781,1.555308,1.608482,0
1752550042.4920754,1.435212,1.628624,0
1752550042.5050411,1.327251,1.6891,0
1752550042.507036,1.394122,1.71891,0
1752550042.5150177,1.477963,1.706825,0
1752550042.518006,1.535972,1.679432,0
1752550042.5239978,1.562559,1.634264,0
1752550042.5269861,1.522275,1.609288,0
1752550042.5299776,1.37398,1.650428,0
1752550042.5309756,1.316777,1.716494,0
1752550042.5309756,1.427961,1.710854,0
1752550042.5309756,1.503745,1.6891,0
1752550042.5319734,1.537583,1.661707,0
1752550042.5319734,1.569004,1.620568,0
1752550042.5319734,1.47474,1.606871,0
1752550042.5339766,1.343365,1.674598,0
1752550042.5449374,1.35545,1.714882,0
1752550042.5479295,1.455404,1.695546,0
1752550042.5549126,1.522275,1.685072,0
1752550042.5579028,1.519858,1.615734,0
1752550042.5638864,1.373175,1.650428,0
1752550042.5658815,1.315971,1.705214,0
1752550042.5688736,1.426349,1.708437,0
1752550042.5718656,1.499716,1.685878,0
1752550042.5728626,1.539194,1.656873,0
1752550042.5728626,1.57545,1.619762,0
1752550042.5728626,1.470712,1.614122,0
1752550042.5738602,1.34981,1.662513,0
1752550042.5868256,1.359478,1.710854,0
1752550042.5888197,1.452987,1.708437,0
1752550042.5967991,1.525498,1.682655,0
1752550042.5987947,1.54564,1.647961,0
1752550042.6067724,1.555308,1.612511,0
1752550042.6087668,1.428766,1.633458,0
1752550042.6107616,1.327251,1.686683,0
1752550042.6137533,1.393317,1.711659,0
1752550042.6137533,1.477963,1.70038,0
1752550042.6137533,1.538389,1.673793,0
1752550042.6147518,1.570616,1.630236,0
1752550042.6147518,1.515024,1.610094,0
1752550042.6147518,1.373175,1.647961,0
1752550042.6157486,1.31436,1.695546,0
1752550042.6287167,1.424738,1.703603,0
1752550042.6307123,1.50455,1.6891,0
1752550042.6386905,1.542417,1.663319,0
1752550042.6416821,1.577061,1.624596,0
1752550042.648663,1.481186,1.615734,0
1752550042.6526527,1.339336,1.669764,0
1752550042.6556447,1.367535,1.710854,0
1752550042.6556447,1.452987,1.705214,0
1752550042.656642,1.525498,1.687489,0
1752550042.656642,1.548862,1.652039,0
1752550042.656642,1.54564,1.608482,0
1752550042.656642,1.423127,1.627819,0
1752550042.656642,1.328862,1.67621,0
1752550042.6576397,1.40379,1.70038,0
1752550042.670605,1.478769,1.693935,0
1752550042.678584,1.535972,1.67057,0
1752550042.6815758,1.573033,1.62943,0
1752550042.689554,1.50455,1.614928,0
1752550042.6905513,1.369952,1.651234,0
1752550042.6945407,1.320806,1.70602,0
1752550042.6965353,1.428766,1.710854,0
1752550042.6975324,1.503745,1.685878,0
1752550042.6975324,1.543223,1.653651,0
1752550042.6975324,1.577061,1.602843,0
1752550042.6975324,1.464266,1.614928,0
1752550042.6975324,1.340948,1.673793,0
1752550042.698531,1.359478,1.711659,0
1752550042.7005243,1.458627,1.70602,0
1752550042.7114954,1.52872,1.677821,0
1752550042.7134907,1.556113,1.647155,0
1752550042.7204719,1.55128,1.614122,0
1752550042.7234635,1.416681,1.638293,0
1752550042.7304444,1.322417,1.701186,0
1752550042.733436,1.397345,1.716494,0
1752550042.7364287,1.478769,1.712465,0
1752550042.7384233,1.533555,1.669764,0
1752550042.7394207,1.573033,1.632653,0
1752550042.7394207,1.508579,1.616539,0
1752550042.7394207,1.370758,1.665736,0
1752550042.7394207,1.324028,1.711659,0
1752550042.7404175,1.431183,1.712465,0
1752550042.7424128,1.508579,1.697157,0
1752550042.75438,1.538389,1.663319,0
1752550042.7583704,1.573033,1.620568,0
1752550042.7643554,1.461849,1.620568,0
1752550042.7683485,1.34417,1.673793,0
1752550042.7753246,1.366729,1.709242,0
1752550042.7783165,1.459432,1.708437,0
1752550042.7823076,1.524692,1.684266,0
1752550042.783304,1.556919,1.639904,0
1752550042.783304,1.54564,1.602843,0
1752550042.783304,1.407013,1.635875,0
1752550042.7843003,1.32564,1.685878,0
1752550042.7843003,1.40379,1.705214,0
1752550042.7843003,1.48038,1.693129,0
1752550042.7852983,1.543223,1.660902,0
1752550042.7872927,1.573838,1.616539,0
1752550042.7982645,1.50455,1.603648,0
1752550042.801256,1.366729,1.650428,0
1752550042.8082366,1.328862,1.710048,0
1752550042.8112285,1.425544,1.708437,0
1752550042.8182101,1.506162,1.681044,0
1752550042.8202045,1.542417,1.650428,0
1752550042.823196,1.569004,1.615734,0
1752550042.8253884,1.465072,1.622985,0
1752550042.8253884,1.340948,1.678627,0
1752550042.8263807,1.37398,1.709242,0
1752550042.8263807,1.464266,1.701991,0
1752550042.8263807,1.527915,1.677821,0
1752550042.8263807,1.557725,1.641515,0
1752550042.8293731,1.542417,1.60526,0
1752550042.8403432,1.405402,1.639904,0
1752550042.8433356,1.32,1.704408,0
1752550042.8513148,1.406207,1.716494,0
1752550042.8602903,1.483603,1.703603,0
1752550042.8612876,1.541611,1.672987,0
1752550042.8652773,1.577061,1.627819,0
1752550042.8682683,1.502133,1.612511,0
1752550042.8692653,1.35545,1.657679,0
1752550042.8692653,1.322417,1.705214,0
1752550042.8692653,1.431989,1.70602,0
1752550042.8702638,1.51583,1.688295,0
1752550042.8702638,1.544028,1.653651,0
1752550042.8702638,1.56981,1.60526,0
1752550042.8712602,1.457015,1.619762,0
1752550042.8852243,1.336919,1.673793,0
1752550042.887218,1.376397,1.709242,0
1752550042.8951972,1.461849,1.704408,0
1752550042.8981888,1.529526,1.674598,0
1752550042.9061682,1.568199,1.626207,0
1752550042.9091597,1.495688,1.607677,0
1752550042.9111543,1.36834,1.654456,0
1752550042.9131494,1.32564,1.703603,0
1752550042.9131494,1.431183,1.703603,0
1752550042.9141457,1.51019,1.682655,0
1752550042.9141457,1.537583,1.658485,0
1752550042.9141457,1.568199,1.612511,0
1752550042.9141457,1.454598,1.627013,0
1752550042.9151447,1.343365,1.681044,0
1752550042.9171386,1.371563,1.713271,0
1752550042.9283755,1.465072,1.709242,0
1752550042.9313693,1.535166,1.681044,0
1752550042.9403431,1.556113,1.645544,0
1752550042.9483228,1.540806,1.611705,0
1752550042.9513245,1.400568,1.639098,0
1752550042.954308,1.32,1.693935,0
1752550042.9563012,1.411847,1.705214,0
1752550042.9582958,1.48602,1.696352,0
1752550042.9582958,1.539194,1.660096,0
1752550042.9592931,1.576255,1.613317,0
1752550042.9592931,1.491659,1.609288,0
1752550042.9592931,1.363507,1.653651,0
1752550042.9592931,1.328862,1.712465,0
1752550042.9602902,1.443269,1.703603,0
1752550042.9622843,1.510996,1.690712,0
1752550042.9742563,1.540806,1.664124,0
1752550042.9762475,1.566587,1.610899,0
1752550042.9852235,1.448958,1.615734,0
1752550042.9872184,1.336113,1.67621,0
1752550042.9941998,1.374786,1.710048,0
1752550042.99819,1.465878,1.703603,0
1752550043.001181,1.531138,1.672987,0
1752550043.0021787,1.562559,1.644738,0
1752550043.0021787,1.535972,1.621373,0
1752550043.0021787,1.394928,1.647155,0
1752550043.0021787,1.319194,1.712465,0
1752550043.0031762,1.413458,1.728579,0
1752550043.0031762,1.490854,1.695546,0
1752550043.0041728,1.532749,1.664124,0
1752550043.0171402,1.577061,1.617345,0
1752550043.0201306,1.490854,1.614122,0
1752550043.0283754,1.361895,1.665736,0
1752550043.0303705,1.340948,1.708437,0
1752550043.038349,1.436823,1.709242,0
1752550043.0413408,1.525498,1.682655,0
1752550043.0453293,1.53436,1.641515,0
1752550043.0473242,1.566587,1.606066,0
1752550043.0473242,1.45057,1.618151,0
1752550043.0483217,1.332085,1.678627,0
1752550043.0483217,1.381231,1.715688,0
1752550043.0483217,1.468295,1.710048,0
1752550043.049319,1.52872,1.677015,0
1752550043.049319,1.564976,1.637487,0
1752550043.0503163,1.53436,1.609288,0
1752550043.0523117,1.388482,1.641515,0
1752550043.063282,1.32,1.697963,0
1752550043.0672727,1.41507,1.710854,0
1752550043.0752504,1.486825,1.692323,0
1752550043.0772452,1.541611,1.661707,0
1752550043.0852227,1.57545,1.612511,0
1752550043.0872178,1.481186,1.60526,0
1752550043.0902097,1.360284,1.66493,0
1752550043.092205,1.339336,1.716494,0
1752550043.093202,1.446542,1.710854,0
1752550043.093202,1.517441,1.682655,0
1752550043.093202,1.544028,1.660096,0
1752550043.093202,1.561753,1.614928,0
1752550043.0941992,1.444124,1.626207,0
1752550043.0941992,1.332891,1.682655,0
1752550043.1074405,1.386871,1.713271,0
1752550043.1104298,1.466683,1.710048,0
1752550043.1183755,1.525498,1.66493,0
1752550043.122366,1.561753,1.625402,0
1752550043.1294432,1.530332,1.614122,0
1752550043.131438,1.390094,1.641515,0
1752550043.1354272,1.318389,1.708437,0
1752550043.1374218,1.42071,1.711659,0
1752550043.1374218,1.489242,1.693935,0
1752550043.1374218,1.540806,1.666541,0
1752550043.1374218,1.577867,1.620568,0
1752550043.1384199,1.481186,1.618956,0
1752550043.1384199,1.353838,1.667347,0
1752550043.1384199,1.345782,1.715688,0
1752550043.1394167,1.446542,1.705214,0
1752550043.1533782,1.529526,1.674598,0
1752550043.1553745,1.563365,1.639098,0
1752550043.1633523,1.530332,1.603648,0
1752550043.16834,1.375592,1.641515,0
1752550043.1733258,1.317583,1.702797,0
1752550043.177315,1.422321,1.714076,0
1752550043.1793096,1.491659,1.695546,0
1752550043.1803076,1.542417,1.669764,0
1752550043.1813047,1.577061,1.62943,0
1752550043.1813047,1.483603,1.624596,0
1752550043.1813047,1.35545,1.677015,0
1752550043.1813047,1.34417,1.713271,0
1752550043.182302,1.445736,1.706825,0
1752550043.182302,1.522275,1.686683,0
1752550043.1962647,1.544028,1.658485,0
1752550043.2002547,1.556113,1.613317,0
1752550043.2082326,1.438434,1.628624,0
1752550043.2172086,1.328862,1.677821,0
1752550043.2182057,1.389288,1.718105,0
1752550043.221198,1.477157,1.697963,0
1752550043.2241898,1.532749,1.669764,0
1752550043.2254653,1.573033,1.635875,0
1752550043.2254653,1.527915,1.609288,0
1752550043.2254653,1.373175,1.647155,0
1752550043.2254653,1.317583,1.703603,0
1752550043.2264564,1.418293,1.710048,0
1752550043.2264564,1.499716,1.689906,0
1752550043.2264564,1.540806,1.656873,0
1752550043.2274532,1.577061,1.621373,0
1752550043.230445,1.479574,1.620568,0
1752550043.2334409,1.345782,1.666541,0
1752550043.236431,1.353838,1.706825,0
1752550043.2394211,1.447347,1.710048,0
1752550043.242368,1.527915,1.668959,0
1752550043.2453625,1.542417,1.635875,0
1752550043.2483554,1.552085,1.602843,0
1752550043.2513485,1.4336,1.62379,0
1752550043.2543721,1.328862,1.685072,0
1752550043.2573314,1.394122,1.712465,0
1752550043.2702973,1.481186,1.697157,0
1752550043.2732894,1.52872,1.669764,0
1752550043.2822666,1.573033,1.627013,0
1752550043.2852578,1.519858,1.613317,0
1752550043.292239,1.36834,1.646349,0
1752550043.2952316,1.315166,1.70038,0
1752550043.2982237,1.426349,1.703603,0
1752550043.2992203,1.496493,1.696352,0
1752550043.3002176,1.548057,1.664124,0
1752550043.3002176,1.56981,1.620568,0
1752550043.3002176,1.472323,1.613317,0
1752550043.3002176,1.347393,1.667347,0
1752550043.3012147,1.356255,1.710854,0
1752550043.3012147,1.453793,1.702797,0
1752550043.3022118,1.522275,1.679432,0
1752550043.3141806,1.544028,1.654456,0
1752550043.3171728,1.552085,1.606871,0
1752550043.3256621,1.431183,1.635875,0
1752550043.3286529,1.328862,1.693129,0
1752550043.336631,1.399762,1.70602,0
1752550043.3396235,1.476351,1.701991,0
1752550043.342615,1.53436,1.67057,0
1752550043.3436124,1.566587,1.627819,0
1752550043.344611,1.519052,1.607677,0
1752550043.344611,1.373175,1.663319,0
1752550043.344611,1.318389,1.714882,0
1752550043.344611,1.428766,1.712465,0
1752550043.3456075,1.502939,1.697157,0
1752550043.3456075,1.539194,1.660096,0
1752550043.347602,1.577061,1.609288,0
1752550043.3605673,1.468295,1.606871,0
1752550043.3675466,1.347393,1.663319,0
1752550043.3715367,1.361089,1.709242,0
1752550043.3805132,1.457821,1.708437,0
1752550043.3815098,1.527915,1.677015,0
1752550043.3855011,1.547251,1.652845,0
1752550043.3884923,1.548862,1.614122,0
1752550043.38949,1.422321,1.62943,0
1752550043.38949,1.327251,1.685878,0
1752550043.38949,1.397345,1.703603,0
1752550043.3904877,1.477963,1.699574,0
1752550043.3904877,1.530332,1.673793,0
1752550043.3904877,1.576255,1.628624,0
1752550043.3904877,1.513413,1.60526,0
1752550043.3924816,1.36834,1.652039,0
1752550043.405448,1.318389,1.710854,0
1752550043.4094365,1.448958,1.704408,0
1752550043.4164164,1.52872,1.67621,0
1752550043.4184127,1.550474,1.640709,0
1752550043.4253953,1.548862,1.608482,0
1752550043.428896,1.426349,1.627819,0
1752550043.430891,1.32564,1.687489,0
1752550043.4328854,1.398956,1.709242,0
1752550043.433883,1.482797,1.701991,0
1752550043.433883,1.532749,1.675404,0
1752550043.433883,1.57545,1.627013,0
1752550043.433883,1.508579,1.618151,0
1752550043.43488,1.370758,1.658485,0
1752550043.43488,1.316777,1.713271,0
1752550043.4478457,1.427961,1.711659,0
1752550043.4508376,1.50455,1.689906,0
1752550043.458816,1.541611,1.668153,0
1752550043.4677918,1.573033,1.619762,0
1752550043.4707823,1.466683,1.618151,0
1752550043.473776,1.343365,1.672987,0
1752550043.475771,1.357867,1.711659,0
1752550043.4767683,1.461044,1.706825,0
1752550043.4767683,1.531138,1.686683,0
1752550043.4767683,1.549668,1.652845,0
1752550043.4767683,1.550474,1.610094,0
1752550043.4777648,1.421515,1.63507,0
1752550043.4777648,1.315166,1.693935,0
1752550043.4777648,1.399762,1.711659,0
1752550043.489733,1.48038,1.685878,0
1752550043.4907308,1.541611,1.66493,0
1752550043.4937227,1.574644,1.627819,0
1752550043.5026987,1.502939,1.613317,0
1752550043.50968,1.370758,1.653651,0
1752550043.511675,1.32,1.715688,0
1752550043.515664,1.425544,1.710854,0
1752550043.518656,1.509384,1.70038,0
1752550043.519653,1.542417,1.678627,0
1752550043.519653,1.574644,1.628624,0
1752550043.5206504,1.457821,1.626207,0
1752550043.5206504,1.337725,1.686683,0
1752550043.5206504,1.37398,1.716494,0
1752550043.5206504,1.460238,1.708437,0
1752550043.5216475,1.526303,1.683461,0
1752550043.5351243,1.556113,1.646349,0
1752550043.5441,1.544028,1.610094,0
1752550043.5470939,1.408624,1.638293,0
1752550043.555071,1.329668,1.689906,0
1752550043.5580626,1.402985,1.701991,0
1752550043.5620518,1.477157,1.693129,0
1752550043.5630493,1.541611,1.655262,0
1752550043.5630493,1.56981,1.620568,0
1752550043.5630493,1.498105,1.608482,0
1752550043.5640466,1.370758,1.652039,0
1752550043.5640466,1.321611,1.70038,0
1752550043.5640466,1.4336,1.701991,0
1752550043.5650444,1.51019,1.672987,0
1752550043.5650444,1.529526,1.645544,0
1752550043.5780094,1.571421,1.602037,0
1752550043.5809994,1.457015,1.606871,0
1752550043.5899773,1.341753,1.661707,0
1752550043.5979562,1.371563,1.702797,0
1752550043.5999506,1.461849,1.702797,0
1752550043.6039398,1.526303,1.686683,0
1752550043.605935,1.553697,1.650428,0
1752550043.605935,1.540806,1.615734,0
1752550043.605935,1.402985,1.645544,0
1752550043.605935,1.322417,1.693129,0
1752550043.606932,1.40379,1.709242,0
1752550043.606932,1.490048,1.690712,0
1752550043.606932,1.535972,1.661707,0
1752550043.606932,1.571421,1.612511,0
1752550043.6089249,1.499716,1.606066,0
1752550043.6208947,1.354644,1.644738,0
1752550043.6238863,1.323223,1.70602,0
1752550043.6318655,1.440046,1.703603,0
1752550043.6398437,1.515024,1.685878,0
1752550043.6408412,1.539194,1.65929,0
1752550043.6438332,1.570616,1.612511,0
1752550043.6468253,1.455404,1.618151,0
1752550043.6478226,1.338531,1.67621,0
1752550043.6478226,1.378009,1.711659,0
1752550043.64882,1.463461,1.709242,0
1752550043.64882,1.52872,1.678627,0
1752550043.64882,1.55853,1.643932,0
1752550043.64882,1.540806,1.612511,0
1752550043.6508143,1.402985,1.640709,0
1752550043.6647775,1.316777,1.707631,0
1752550043.6677697,1.440046,1.715688,0
1752550043.675748,1.51019,1.693129,0
1752550043.6837263,1.543223,1.665736,0
1752550043.6847227,1.561753,1.626207,0
1752550043.6877155,1.445736,1.633458,0
1752550043.6917048,1.328057,1.677015,0
1752550043.6917048,1.37962,1.712465,0
1752550043.6917048,1.467489,1.698769,0
1752550043.6917048,1.531943,1.678627,0
1752550043.6927025,1.557725,1.643932,0
1752550043.6927025,1.538389,1.614928,0
1752550043.6927025,1.398956,1.647155,0
1752550043.6936996,1.324028,1.705214,0
1752550043.7066653,1.411847,1.714882,0
1752550043.7086596,1.488437,1.698769,0
1752550043.7166386,1.535972,1.667347,0
1752550043.7256148,1.573838,1.621373,0
1752550043.7256148,1.502133,1.603648,0
1752550043.7296035,1.360284,1.652039,0
1752550043.732596,1.328057,1.705214,0
1752550043.7335927,1.434406,1.698769,0
1752550043.7335927,1.519052,1.679432,0
1752550043.7335927,1.542417,1.652039,0
1752550043.7345903,1.562559,1.610899,0
1752550043.7345903,1.448153,1.622985,0
1752550043.7345903,1.336113,1.678627,0
1752550043.7365847,1.386065,1.708437,0
1752550043.748553,1.468295,1.697963,0
1752550043.757529,1.527915,1.677015,0
1752550043.7595236,1.55853,1.639904,0
1752550043.7675025,1.539194,1.616539,0
1752550043.7684984,1.395734,1.647961,0
1752550043.7714906,1.317583,1.711659,0
1752550043.7734845,1.415875,1.709242,0
1752550043.7754817,1.492465,1.689906,0
1752550043.7754817,1.537583,1.663319,0
1752550043.7754817,1.577061,1.618151,0
1752550043.7754817,1.488437,1.618151,0
1752550043.776477,1.356255,1.663319,0
1752550043.776477,1.332085,1.702797,0
1752550043.7784717,1.4336,1.701991,0
1752550043.7904408,1.519858,1.681044,0
1752550043.7984223,1.544028,1.651234,0
1752550043.801412,1.557725,1.614122,0
1752550043.802409,1.451376,1.618151,0
1752550043.80939,1.332085,1.678627,0
1752550043.8123822,1.384454,1.708437,0
1752550043.815375,1.471517,1.701991,0
1752550043.817369,1.527915,1.678627,0
1752550043.817369,1.56417,1.637487,0
1752550043.8183663,1.53436,1.612511,0
1752550043.8183663,1.386065,1.652039,0
1752550043.8183663,1.319194,1.701991,0
1752550043.8183663,1.416681,1.705214,0
1752550043.8203607,1.495688,1.693129,0
1752550043.8323293,1.533555,1.669764,0
1752550043.8353202,1.577867,1.622985,0
1752550043.8423016,1.48602,1.618151,0
1752550043.845295,1.356255,1.66493,0
1752550043.851278,1.344976,1.709242,0
1752550043.8552668,1.442463,1.717299,0
1752550043.8582582,1.523081,1.682655,0
1752550043.8592558,1.539194,1.652845,0
1752550043.8592558,1.561753,1.615734,0
1752550043.8602521,1.437629,1.631041,0
1752550043.8602521,1.328057,1.680238,0
1752550043.8602521,1.386871,1.70038,0
1752550043.8602521,1.473935,1.695546,0
1752550043.8622475,1.53436,1.672181,0
1752550043.8752146,1.559336,1.63507,0
1752550043.8831925,1.531138,1.610094,0
1752550043.8861847,1.382843,1.652039,0
1752550043.8941631,1.315166,1.708437,0
1752550043.8961582,1.422321,1.718105,0
1752550043.898152,1.493271,1.695546,0
1752550043.9021423,1.53436,1.662513,0
1752550043.9021423,1.573838,1.613317,0
1752550043.9021423,1.48038,1.613317,0
1752550043.9021423,1.35545,1.656873,0
1752550043.9021423,1.344976,1.710048,0
1752550043.903139,1.448153,1.703603,0
1752550043.903139,1.522275,1.681044,0
1752550043.9041364,1.542417,1.655262,0
1752550043.917102,1.557725,1.625402,0
1752550043.925081,1.397345,1.652039,0
1752550043.9280727,1.318389,1.716494,0
1752550043.9360511,1.421515,1.713271,0
1752550043.9390433,1.494076,1.695546,0
1752550043.9420354,1.535972,1.664124,0
1752550043.9440303,1.569004,1.615734,0
1752550043.9440303,1.48038,1.603648,0
1752550043.9440303,1.354644,1.65929,0
1752550043.9440303,1.351421,1.708437,0
1752550043.9450278,1.451376,1.703603,0
1752550043.9450278,1.523886,1.683461,0
1752550043.9450278,1.542417,1.647961,0
1752550043.9470217,1.554502,1.606066,0
1752550043.9589899,1.437629,1.62943,0
1752550043.9669688,1.32564,1.677821,0
1752550043.9699607,1.389288,1.708437,0
1752550043.9779375,1.477963,1.706825,0
1752550043.9779375,1.537583,1.680238,0
1752550043.9809296,1.567393,1.635875,0
1752550043.9839232,1.513413,1.593175,0
1752550043.9859185,1.376397,1.63507,0
1752550043.9859185,1.317583,1.701991,0
1752550043.9869153,1.424738,1.705214,0
1752550043.9869153,1.503745,1.692323,0
1752550043.9869153,1.544028,1.663319,0
1752550043.9869153,1.573838,1.616539,0
1752550043.9889095,1.477157,1.610094,0
1752550044.0028722,1.350616,1.672987,0
1752550044.0108514,1.354644,1.722939,0
1752550044.0138433,1.45057,1.711659,0
1752550044.0228183,1.520664,1.689906,0
1752550044.0238166,1.548057,1.656873,0
1752550044.0278063,1.552085,1.609288,0
1752550044.030799,1.440046,1.627013,0
1752550044.0317984,1.328057,1.692323,0
1752550044.0317984,1.395734,1.721327,0
1752550044.0317984,1.473129,1.704408,0
1752550044.0317984,1.52872,1.67057,0
1752550044.0327923,1.56417,1.628624,0
1752550044.0327923,1.523081,1.602037,0
1752550044.0327923,1.37398,1.639098,0
1752550044.0337896,1.319194,1.706825,0
1752550044.0467548,1.42071,1.710854,0
1752550044.0497468,1.503745,1.688295,0
1752550044.0567284,1.539194,1.660902,0
1752550044.0597208,1.571421,1.618956,0
1752550044.0667021,1.476351,1.614122,0
1752550044.0706909,1.348199,1.665736,0
1752550044.0736833,1.352227,1.705214,0
1752550044.0736833,1.452987,1.704408,0
1752550044.0746806,1.52872,1.669764,0
1752550044.0746806,1.543223,1.640709,0
1752550044.0746806,1.552891,1.600426,0
1752550044.0746806,1.425544,1.628624,0
1752550044.0746806,1.328057,1.692323,0
1752550044.075678,1.397345,1.710048,0
1752550044.0896404,1.479574,1.697157,0
1752550044.0976193,1.53436,1.677015,0
1752550044.099614,1.57545,1.638293,0
1752550044.1075923,1.519052,1.609288,0
1752550044.1105845,1.365924,1.657679,0
1752550044.1135767,1.323223,1.712465,0
1752550044.115572,1.422321,1.710854,0
1752550044.1165688,1.498105,1.696352,0
1752550044.1165688,1.538389,1.653651,0
1752550044.1165688,1.573033,1.616539,0
1752550044.1165688,1.479574,1.609288,0
1752550044.1175654,1.345782,1.666541,0
1752550044.1175654,1.356255,1.702797,0
1752550044.1185632,1.458627,1.689906,0
1752550044.1305313,1.525498,1.667347,0
1752550044.1335232,1.548862,1.643932,0
1752550044.1405046,1.548057,1.611705,0
1752550044.1434968,1.429572,1.626207,0
1752550044.150478,1.323223,1.689906,0
1752550044.1524725,1.398956,1.711659,0
1752550044.1554651,1.482797,1.70602,0
1752550044.1574602,1.533555,1.67621,0
1752550044.1574602,1.570616,1.634264,0
1752550044.1574602,1.511801,1.619762,0
1752550044.1574602,1.36834,1.654456,0
1752550044.1574602,1.311943,1.701186,0
1752550044.158456,1.430378,1.696352,0
1752550044.1604512,1.506967,1.681044,0
1752550044.1734164,1.540806,1.657679,0
1752550044.1803958,1.557725,1.604454,0
1752550044.1823926,1.423127,1.626207,0
1752550044.1903708,1.323223,1.688295,0
1752550044.1913679,1.402179,1.708437,0
1752550044.193363,1.479574,1.698769,0
1752550044.196355,1.535166,1.669764,0
1752550044.1983497,1.571421,1.627819,0
1752550044.1983497,1.513413,1.607677,0
1752550044.199347,1.369146,1.652845,0
1752550044.199347,1.319194,1.713271,0
1752550044.199347,1.427961,1.716494,0
1752550044.2003446,1.506162,1.687489,0
1752550044.2133098,1.541611,1.660902,0
1752550044.216302,1.573033,1.615734,0
1752550044.2242804,1.465878,1.616539,0
1752550044.2322593,1.344976,1.680238,0
1752550044.2342536,1.36834,1.714882,0
1752550044.2362483,1.454598,1.713271,0
1752550044.2392402,1.518247,1.685878,0
1752550044.2402375,1.548057,1.650428,0
1752550044.2402375,1.548862,1.606066,0
1752550044.2402375,1.414264,1.62943,0
1752550044.2412348,1.324028,1.685878,0
1752550044.2412348,1.404596,1.710854,0
1752550044.2412348,1.484408,1.70602,0
1752550044.2422323,1.530332,1.674598,0
1752550044.2542002,1.571421,1.626207,0
1752550044.262179,1.51019,1.613317,0
1752550044.2661684,1.369952,1.654456,0
1752550044.2731495,1.315971,1.715688,0
1752550044.2761416,1.432795,1.711659,0
1752550044.2791336,1.513413,1.690712,0
1752550044.2801309,1.541611,1.660902,0
1752550044.2801309,1.573033,1.614928,0
1752550044.2801309,1.463461,1.614122,0
1752550044.2801309,1.340948,1.665736,0
1752550044.281128,1.37398,1.701991,0
1752550044.281128,1.458627,1.690712,0
1752550044.281128,1.527109,1.673793,0
1752550044.2841194,1.555308,1.635875,0
1752550044.2960882,1.548057,1.602037,0
1752550044.2980833,1.411041,1.633458,0
1752550044.3060615,1.324028,1.693935,0
1752550044.3140397,1.407819,1.714882,0
1752550044.3160355,1.483603,1.710854,0
1752550044.3200243,1.532749,1.674598,0
1752550044.321021,1.577867,1.635875,0
1752550044.322019,1.498105,1.615734,0
1752550044.322019,1.365118,1.664124,0
1752550044.322019,1.324834,1.70038,0
1752550044.322019,1.437629,1.70602,0
1752550044.323016,1.517441,1.686683,0
1752550044.323016,1.540806,1.661707,0
1752550044.3369787,1.568199,1.610094,0
1752550044.3389726,1.457821,1.620568,0
1752550044.3469527,1.338531,1.671376,0
1752550044.3509405,1.37398,1.705214,0
1752550044.356925,1.463461,1.70038,0
1752550044.3599174,1.526303,1.674598,0
1752550044.3629098,1.555308,1.647155,0
1752550044.3639078,1.543223,1.614122,0
1752550044.3639078,1.408624,1.642321,0
1752550044.3639078,1.319194,1.697963,0
1752550044.3639078,1.405402,1.706825,0
1752550044.3649042,1.48602,1.70038,0
1752550044.3649042,1.535166,1.673793,0
1752550044.3649042,1.573033,1.632653,0
1752550044.3778691,1.502939,1.614122,0
1752550044.3808615,1.366729,1.660096,0
1752550044.387843,1.32,1.713271,0
1752550044.3898373,1.440851,1.706825,0
1752550044.3968186,1.51583,1.680238,0
1752550044.400808,1.535972,1.657679,0
1752550044.4028027,1.570616,1.612511,0
1752550044.4038,1.457015,1.618956,0
1752550044.4038,1.335308,1.686683,0
1752550044.404798,1.374786,1.709242,0
1752550044.404798,1.464266,1.703603,0
1752550044.404798,1.531138,1.67057,0
1752550044.404798,1.561753,1.634264,0
1752550044.4067917,1.535972,1.610094,0
1752550044.4190087,1.400568,1.639098,0
1752550044.4210033,1.32,1.696352,0
1752550044.4289818,1.40943,1.708437,0
1752550044.4319742,1.487631,1.698769,0
1752550044.4379573,1.54564,1.658485,0
1752550044.440949,1.560142,1.612511,0
1752550044.4439793,1.452181,1.635875,0
1752550044.4449394,1.337725,1.683461,0
1752550044.4449394,1.37398,1.706825,0
1752550044.4449394,1.465878,1.690712,0
1752550044.4459367,1.531138,1.67057,0
1752550044.4459367,1.560142,1.639904,0
1752550044.446933,1.538389,1.611705,0
1752550044.4598987,1.396539,1.639098,0
1752550044.4628904,1.321611,1.695546,0
1752550044.4708695,1.408624,1.710048,0
1752550044.4788475,1.487631,1.693129,0
1752550044.4808433,1.535972,1.666541,0
1752550044.483836,1.576255,1.624596,0
1752550044.4868264,1.491659,1.614928,0
1752550044.4868264,1.358672,1.662513,0
1752550044.4878237,1.330474,1.711659,0
1752550044.4878237,1.440851,1.703603,0
1752550044.4878237,1.516635,1.689906,0
1752550044.4878237,1.539194,1.661707,0
1752550044.488821,1.559336,1.607677,0
1752550044.488821,1.451376,1.618151,0
1752550044.5027838,1.336113,1.672987,0
1752550044.5107615,1.384454,1.709242,0
1752550044.5137541,1.465072,1.698769,0
1752550044.5217328,1.531138,1.656873,0
1752550044.5247257,1.554502,1.637487,0
1752550044.5267198,1.52872,1.613317,0
1752550044.5297117,1.398956,1.642321,0
1752550044.5297117,1.319194,1.70038,0
1752550044.5297117,1.410236,1.708437,0
1752550044.5307097,1.489242,1.683461,0
1752550044.5307097,1.538389,1.655262,0
1752550044.5307097,1.574644,1.616539,0
1752550044.5307097,1.490854,1.609288,0
1752550044.5317068,1.360284,1.663319,0
1752550044.545182,1.334502,1.712465,0
1752550044.547177,1.44493,1.710048,0
1752550044.5561519,1.518247,1.697157,0
1752550044.56413,1.543223,1.660096,0
1752550044.5651278,1.563365,1.603648,0
1752550044.569118,1.447347,1.619762,0
1752550044.572109,1.332085,1.6891,0
1752550044.573107,1.37962,1.713271,0
1752550044.573107,1.461849,1.698769,0
1752550044.574104,1.526303,1.671376,0
1752550044.574104,1.566587,1.639098,0
1752550044.574104,1.532749,1.606871,0
1752550044.574104,1.388482,1.646349,0
1752550044.575102,1.317583,1.704408,0
1752550044.5760982,1.415875,1.712465,0
1752550044.5890641,1.495688,1.692323,0
1752550044.5920556,1.539194,1.668153,0
1752550044.6000342,1.570616,1.622179,0
1752550044.6020296,1.48602,1.614122,0
1752550044.6090107,1.357867,1.657679,0
1752550044.6120026,1.342559,1.714076,0
1752550044.614997,1.452181,1.706825,0
1752550044.6169899,1.515024,1.687489,0
1752550044.6169899,1.540806,1.658485,0
1752550044.6169899,1.557725,1.624596,0
1752550044.6169899,1.442463,1.631041,0
1752550044.6179862,1.332891,1.690712,0
1752550044.6179862,1.388482,1.70602,0
1752550044.6179862,1.471517,1.693935,0
1752550044.6209795,1.535972,1.674598,0
1752550044.6319509,1.564976,1.638293,0
1752550044.6349463,1.531138,1.607677,0
1752550044.642925,1.383648,1.645544,0
1752550044.6459165,1.316777,1.701991,0
1752550044.6528978,1.419904,1.713271,0
1752550044.6558902,1.494076,1.697963,0
1752550044.658882,1.539194,1.667347,0
1752550044.659879,1.576255,1.616539,0
1752550044.659879,1.482797,1.614122,0
1752550044.659879,1.350616,1.660902,0
1752550044.6608768,1.345782,1.701991,0
1752550044.6608768,1.446542,1.703603,0
1752550044.6608768,1.522275,1.679432,0
1752550044.6638696,1.549668,1.643932,0
1752550044.6663404,1.543223,1.607677,0
1752550044.6694508,1.440046,1.627819,0
1752550044.6724436,1.332085,1.681044,0
1752550044.6754346,1.384454,1.708437,0
1752550044.6794245,1.498105,1.692323,0
1752550044.6913924,1.541611,1.669764,0
1752550044.6933873,1.573033,1.627013,0
1752550044.7013664,1.482797,1.622179,0
1752550044.70735,1.354644,1.674598,0
1752550044.711339,1.346587,1.716494,0
1752550044.7143319,1.45057,1.709242,0
1752550044.7173233,1.523886,1.695546,0
1752550044.7183208,1.544834,1.671376,0
1752550044.719318,1.549668,1.615734,0
1752550044.719318,1.431183,1.628624,0
1752550044.719318,1.328057,1.685072,0
1752550044.719318,1.388482,1.709242,0
1752550044.720315,1.473935,1.691518,0
1752550044.7213125,1.535166,1.65929,0
1752550044.7243054,1.568199,1.626207,0
1752550044.7352386,1.521469,1.602037,0
1752550044.7432168,1.374786,1.644738,0
1752550044.7452118,1.319194,1.710048,0
1752550044.748211,1.423127,1.704408,0
1752550044.755185,1.506162,1.6891,0
1752550044.757212,1.539194,1.664124,0
1752550044.7602053,1.577061,1.616539,0
1752550044.7621663,1.479574,1.615734,0
1752550044.763198,1.349004,1.67621,0
1752550044.763198,1.352227,1.719716,0
1752550044.763198,1.448153,1.715688,0
1752550044.763198,1.523081,1.702797,0
1752550044.7641602,1.552085,1.653651,0
1752550044.7661576,1.555308,1.611705,0
1752550044.7781556,1.426349,1.632653,0
1752550044.7801497,1.32564,1.691518,0
1752550044.7880967,1.394122,1.709242,0
1752550044.790091,1.47474,1.697157,0
1752550044.7970722,1.527915,1.665736,0
1752550044.800065,1.566587,1.631847,0
1752550044.802059,1.525498,1.60526,0
1752550044.8040538,1.371563,1.650428,0
1752550044.806049,1.319194,1.702797,0
1752550044.806049,1.421515,1.710048,0
1752550044.806049,1.503745,1.686683,0
1752550044.806049,1.541611,1.655262,0
1752550044.807046,1.57545,1.610899,0
1752550044.8080432,1.469906,1.618151,0
1752550044.821009,1.352227,1.665736,0
1752550044.8240008,1.357061,1.712465,0
1752550044.8319807,1.447347,1.718105,0
1752550044.8399575,1.521469,1.687489,0
1752550044.8429499,1.55128,1.650428,0
1752550044.845942,1.552085,1.613317,0
1752550044.8479376,1.431989,1.630236,0
1752550044.8479376,1.322417,1.696352,0
1752550044.8479376,1.394928,1.713271,0
1752550044.8489351,1.484408,1.696352,0
1752550044.8489351,1.529526,1.674598,0
1752550044.8489351,1.563365,1.627819,0
1752550044.8489351,1.523081,1.602037,0
1752550044.849932,1.366729,1.644738,0
1752550044.862897,1.318389,1.704408,0
1752550044.8648956,1.425544,1.706825,0
1752550044.8719046,1.502133,1.691518,0
1752550044.8739219,1.541611,1.661707,0
1752550044.8818464,1.577867,1.618151,0
1752550044.8838415,1.47474,1.618151,0
1752550044.8878295,1.337725,1.667347,0
1752550044.8898246,1.36834,1.702797,0
1752550044.8898246,1.451376,1.698769,0
1752550044.8898246,1.522275,1.683461,0
1752550044.8908222,1.548862,1.646349,0
1752550044.8908222,1.550474,1.619762,0
1752550044.8908222,1.424738,1.633458,0
1752550044.891819,1.328057,1.696352,0
1752550044.9047852,1.397345,1.719716,0
1752550044.9127629,1.478769,1.703603,0
1752550044.9157553,1.533555,1.668153,0
1752550044.9207416,1.571421,1.618151,0
1752550044.9247324,1.512607,1.609288,0
1752550044.927723,1.371563,1.642321,0
1752550044.931713,1.323223,1.701991,0
1752550044.931713,1.419904,1.721327,0
1752550044.931713,1.499716,1.698769,0
1752550044.9327106,1.53436,1.664124,0
1752550044.9327106,1.576255,1.610094,0
1752550044.9327106,1.467489,1.607677,0
1752550044.9327106,1.343365,1.671376,0
1752550044.934704,1.392511,1.715688,0
1752550044.9466724,1.487631,1.693935,0
1752550044.9556487,1.535166,1.666541,0
1752550044.95864,1.570616,1.62379,0
1752550044.9656236,1.51019,1.606871,0
1752550044.9676163,1.370758,1.656873,0
1752550044.9706087,1.324028,1.701991,0
1752550044.9726028,1.427961,1.70038,0
1752550044.9736001,1.502939,1.691518,0
1752550044.9736001,1.542417,1.661707,0
1752550044.9736001,1.573033,1.611705,0
1752550044.9736001,1.465878,1.618151,0
1752550044.9736001,1.343365,1.674598,0
1752550044.9745977,1.357867,1.710048,0
1752550044.987563,1.461849,1.704408,0
1752550044.9905548,1.529526,1.681044,0
1752550044.997538,1.544028,1.652039,0
1752550045.0045178,1.553697,1.606871,0
1752550045.0075097,1.417487,1.630236,0
1752550045.009504,1.321611,1.693935,0
1752550045.0124962,1.405402,1.70602,0
1752550045.0134935,1.482797,1.693935,0
1752550045.0134935,1.535166,1.672181,0
1752550045.0144918,1.571421,1.624596,0
1752550045.0144918,1.502133,1.601231,0
1752550045.0144918,1.369952,1.655262,0
1752550045.0144918,1.318389,1.725356,0
1752550045.016486,1.431989,1.708437,0
1752550045.02948,1.509384,1.690712,0
1752550045.0314481,1.542417,1.660902,0
1752550045.0385494,1.573838,1.619762,0
1752550045.0415416,1.461044,1.622179,0
1752550045.047527,1.340948,1.677015,0
1752550045.0505183,1.371563,1.70602,0
1752550045.0525124,1.463461,1.705214,0
1752550045.0555048,1.523886,1.685072,0
1752550045.0555048,1.55128,1.647155,0
1752550045.0555048,1.544028,1.606066,0
1752550045.0565312,1.40943,1.635875,0
1752550045.0565312,1.322417,1.697963,0
1752550045.0565312,1.404596,1.711659,0
1752550045.0584965,1.487631,1.699574,0
1752550045.0704646,1.53436,1.66493,0
1752550045.077446,1.573838,1.628624,0
1752550045.0794404,1.505356,1.612511,0
1752550045.0834298,1.365118,1.652039,0
1752550045.089414,1.324834,1.70038,0
1752550045.0924385,1.432795,1.702797,0
1752550045.095432,1.515024,1.682655,0
1752550045.0964236,1.541611,1.646349,0
1752550045.0964236,1.56981,1.601231,0
1752550045.0964236,1.457015,1.618956,0
1752550045.0973918,1.343365,1.677821,0
1752550045.0973918,1.374786,1.710854,0
1752550045.0973918,1.461849,1.710048,0
1752550045.1093817,1.523081,1.687489,0
1752550045.1133816,1.556113,1.638293,0
1752550045.120331,1.544834,1.59962,0
1752550045.1223257,1.40943,1.633458,0
1752550045.1293068,1.317583,1.699574,0
1752550045.131305,1.414264,1.716494,0
1752550045.1342938,1.485214,1.698769,0
1752550045.136553,1.536777,1.67057,0
1752550045.1375499,1.567393,1.622179,0
1752550045.1375499,1.490048,1.600426,0
1752550045.1375499,1.365118,1.653651,0
1752550045.1375499,1.331279,1.711659,0
1752550045.1375499,1.438434,1.706825,0
1752550045.1395452,1.513413,1.690712,0
1752550045.1515129,1.541611,1.66493,0
1752550045.1545048,1.567393,1.615734,0
1752550045.1614861,1.453793,1.620568,0
1752550045.1684673,1.337725,1.67621,0
1752550045.170462,1.373175,1.716494,0
1752550045.1724567,1.464266,1.714882,0
1752550045.175449,1.523886,1.679432,0
1752550045.1774433,1.554502,1.645544,0
1752550045.1774433,1.541611,1.618956,0
1752550045.178441,1.402985,1.650428,0
1752550045.178441,1.319194,1.704408,0
1752550045.178441,1.41507,1.718105,0
1752550045.178441,1.490854,1.695546,0
1752550045.181434,1.537583,1.668153,0
1752550045.191406,1.574644,1.619762,0
1752550045.1944249,1.498911,1.602037,0
1752550045.20241,1.340948,1.666541,0
1752550045.209391,1.37962,1.705214,0
1752550045.210389,1.468295,1.698769,0
1752550045.2123623,1.530332,1.667347,0
1752550045.2173376,1.559336,1.640709,0
1752550045.2173376,1.531138,1.613317,0
1752550045.2183337,1.392511,1.639904,0
1752550045.2183337,1.322417,1.692323,0
1752550045.2183337,1.413458,1.702797,0
1752550045.2183337,1.48602,1.699574,0
1752550045.2213259,1.539194,1.67621,0
1752550045.2322974,1.579478,1.622985,0
1752550045.2402754,1.489242,1.612511,0
1752550045.2422698,1.360284,1.664124,0
1752550045.2442641,1.332891,1.712465,0
1752550045.250249,1.443269,1.712465,0
1752550045.2532403,1.519052,1.685878,0
1752550045.2552366,1.535166,1.662513,0
1752550045.2582538,1.567393,1.615734,0
1752550045.2582538,1.448958,1.625402,0
1752550045.2582538,1.330474,1.680238,0
1752550045.2582538,1.381231,1.713271,0
1752550045.2582538,1.470712,1.70038,0
1752550045.2602532,1.523886,1.669764,0
1752550045.2721896,1.560142,1.642321,0
1752550045.275181,1.536777,1.613317,0
1752550045.2831616,1.394122,1.640709,0
1752550045.2911394,1.321611,1.690712,0
1752550045.2921364,1.406207,1.703603,0
1752550045.2951288,1.493271,1.688295,0
1752550045.2981217,1.540806,1.660902,0
1752550045.2981217,1.576255,1.621373,0
1752550045.2991197,1.490854,1.611705,0
1752550045.2991197,1.361089,1.657679,0
1752550045.2991197,1.338531,1.704408,0
1752550045.2991197,1.446542,1.70038,0
1752550045.3001165,1.517441,1.680238,0
1752550045.3021102,1.537583,1.657679,0
1752550045.3130803,1.560142,1.618956,0
1752550045.3150778,1.446542,1.620568,0
1752550045.3230536,1.333696,1.688295,0
1752550045.331034,1.378814,1.731801,0
1752550045.3330283,1.477157,1.712465,0
1752550045.3360195,1.522275,1.669764,0
1752550045.3380136,1.557725,1.621373,0
1752550045.339011,1.52872,1.598814,0
1752550045.339011,1.386871,1.638293,0
1752550045.339011,1.32,1.698769,0
1752550045.339011,1.418293,1.710048,0
1752550045.3400083,1.497299,1.690712,0
1752550045.341006,1.540806,1.660902,0
1752550045.3529735,1.576255,1.612511,0
1752550045.355966,1.484408,1.611705,0
1752550045.3629787,1.353838,1.666541,0
1752550045.3659387,1.343365,1.71891,0
1752550045.3719566,1.44493,1.707631,0
1752550045.374926,1.520664,1.681044,0
1752550045.3789427,1.547251,1.647961,0
1752550045.3789427,1.557725,1.613317,0
1752550045.3789427,1.446542,1.63507,0
1752550045.3789427,1.316777,1.690712,0
1752550045.379933,1.383648,1.710854,0
1752550045.379933,1.47474,1.695546,0
1752550045.379933,1.53436,1.678627,0
1752550045.3928988,1.563365,1.638293,0
1752550045.3958907,1.530332,1.606066,0
1752550045.4028718,1.383648,1.652039,0
1752550045.408857,1.315166,1.701991,0
1752550045.412847,1.415875,1.704408,0
1752550045.4158084,1.497299,1.6891,0
1752550045.4197953,1.540806,1.656873,0
1752550045.4197953,1.574644,1.621373,0
1752550045.4197953,1.482797,1.614928,0
1752550045.4197953,1.35545,1.662513,0
1752550045.4197953,1.342559,1.708437,0
1752550045.420792,1.446542,1.714882,0
1752550045.420792,1.526303,1.685072,0
1752550045.4217896,1.548862,1.654456,0
1752550045.4337575,1.556919,1.609288,0
1752550045.4417632,1.440046,1.637487,0
1752550045.4437573,1.306304,1.687489,0
1752550045.4447567,1.386871,1.703603,0
1752550045.4517412,1.477157,1.701991,0
1752550045.4537427,1.53436,1.672181,0
1752550045.4567277,1.56981,1.635875,0
1752550045.4587238,1.494882,1.616539,0
1752550045.4587238,1.35545,1.67057,0
1752550045.4597201,1.349004,1.715688,0
1752550045.4597201,1.45057,1.712465,0
1752550045.4597201,1.519858,1.691518,0
1752550045.4626806,1.547251,1.654456,0
1752550045.4736507,1.556919,1.608482,0
1752550045.4816298,1.434406,1.620568,0
1752550045.4846556,1.328057,1.678627,0
1752550045.4916358,1.390094,1.712465,0
1752550045.4936292,1.473129,1.701186,0
1752550045.496616,1.531943,1.672987,0
1752550045.4985843,1.565782,1.641515,0
1752550045.4985843,1.525498,1.611705,0
1752550045.4985843,1.37962,1.638293,0
1752550045.499581,1.317583,1.693129,0
1752550045.499581,1.432795,1.70602,0
1752550045.499581,1.487631,1.702797,0
1752550045.5015762,1.530332,1.665736,0
1752550045.5125742,1.583507,1.610899,0
1752550045.5205576,1.477157,1.618956,0
1752550045.5225203,1.342559,1.671376,0
1752550045.529535,1.357061,1.712465,0
1752550045.5314975,1.451376,1.713271,0
1752550045.5344892,1.526303,1.6891,0
1752550045.537481,1.547251,1.653651,0
1752550045.537481,1.553697,1.606871,0
1752550045.537481,1.431989,1.622985,0
1752550045.537481,1.324834,1.683461,0
1752550045.5385096,1.394928,1.717299,0
1752550045.5385096,1.478769,1.698769,0
1752550045.540473,1.535972,1.668153,0
1752550045.5514762,1.563365,1.633458,0
1752550045.5544667,1.521469,1.611705,0
1752550045.5604503,1.371563,1.640709,0
1752550045.5634432,1.318389,1.699574,0
1752550045.5694287,1.423127,1.708437,0
1752550045.5724204,1.499716,1.702797,0
1752550045.5744176,1.542417,1.667347,0
1752550045.5764086,1.573033,1.606871,0
1752550045.5774076,1.470712,1.606066,0
1752550045.5774076,1.348199,1.657679,0
1752550045.5774076,1.357061,1.703603,0
1752550045.5774076,1.457821,1.703603,0
1752550045.5793874,1.526303,1.679432,0
1752550045.5903711,1.544834,1.652039,0
1752550045.5923347,1.550474,1.615734,0
1752550045.5993483,1.427961,1.627013,0
1752550045.6013446,1.327251,1.686683,0
1752550045.6053307,1.3909,1.71891,0
1752550045.610317,1.481186,1.701991,0
1752550045.6133091,1.533555,1.673793,0
1752550045.6152725,1.56981,1.627819,0
1752550045.6173038,1.511801,1.606871,0
1752550045.6173038,1.37398,1.645544,0
1752550045.6173038,1.315166,1.699574,0
1752550045.6173038,1.426349,1.699574,0
1752550045.618301,1.502133,1.685072,0
1752550045.6302335,1.544028,1.660902,0
1752550045.6332576,1.576255,1.612511,0
1752550045.6402376,1.463461,1.614122,0
1752550045.6432292,1.342559,1.672181,0
1752550045.6491814,1.361089,1.714882,0
1752550045.652202,1.458627,1.707631,0
1752550045.655166,1.526303,1.677821,0
1752550045.6561625,1.548862,1.650428,0
1752550045.6561625,1.554502,1.612511,0
1752550045.6561625,1.42071,1.635875,0
1752550045.6561625,1.324028,1.701991,0
1752550045.6571603,1.397345,1.718105,0
1752550045.6571603,1.484408,1.717299,0
1752550045.6691544,1.537583,1.687489,0
1752550045.6771383,1.569004,1.631847,0
1752550045.6791346,1.51019,1.610094,0
1752550045.681096,1.369952,1.660902,0
1752550045.6881087,1.311943,1.70602,0
1752550045.6901038,1.434406,1.705214,0
1752550045.6940627,1.506162,1.685878,0
1752550045.6940627,1.540806,1.663319,0
1752550045.6940627,1.573838,1.616539,0
1752550045.6940627,1.463461,1.614928,0
1752550045.6940627,1.339336,1.67621,0
1752550045.695059,1.369952,1.709242,0
1752550045.6960561,1.452987,1.701991,0
1752550045.7080576,1.529526,1.680238,0
1752550045.7100503,1.574644,1.631847,0
1752550045.717997,1.51019,1.610899,0
1752550045.7249796,1.367535,1.65929,0
1752550045.7270024,1.319194,1.702797,0
1752550045.7299943,1.427961,1.702797,0
1752550045.7319937,1.505356,1.678627,0
1752550045.7319937,1.53436,1.65929,0
1752550045.7329912,1.579478,1.613317,0
1752550045.7329912,1.461849,1.621373,0
1752550045.7329912,1.338531,1.677015,0
1752550045.7329912,1.367535,1.709242,0
1752550045.745954,1.460238,1.70038,0
1752550045.7539327,1.526303,1.681849,0
1752550045.756925,1.554502,1.655262,0
1752550045.7629087,1.554502,1.615734,0
1752550045.763875,1.40943,1.632653,0
1752550045.7658699,1.318389,1.689906,0
1752550045.7688613,1.40943,1.709242,0
1752550045.7708557,1.482797,1.695546,0
1752550045.7708557,1.530332,1.667347,0
1752550045.7708557,1.574644,1.616539,0
1752550045.7708557,1.503745,1.610094,0
1752550045.771853,1.36834,1.656873,0
1752550045.771853,1.319194,1.710048,0
1752550045.783821,1.4336,1.703603,0
1752550045.7858422,1.510996,1.683461,0
1752550045.7928236,1.539194,1.672181,0
1752550045.8017735,1.567393,1.619762,0
1752550045.8037674,1.453793,1.62943,0
1752550045.8057628,1.342559,1.680238,0
1752550045.807757,1.371563,1.709242,0
1752550045.8087811,1.463461,1.701991,0
1752550045.8087811,1.523886,1.677015,0
1752550045.8087811,1.556919,1.650428,0
1752550045.8097832,1.544834,1.616539,0
1752550045.8097832,1.405402,1.63507,0
1752550045.8107493,1.321611,1.691518,0
1752550045.822745,1.407013,1.705214,0
1752550045.8237417,1.48602,1.693129,0
1752550045.8317256,1.536777,1.666541,0
1752550045.8367116,1.576255,1.62943,0
1752550045.840706,1.499716,1.618956,0
1752550045.8436947,1.36834,1.666541,0
1752550045.8456883,1.328057,1.716494,0
1752550045.846653,1.432795,1.713271,0
1752550045.846653,1.510996,1.6891,0
1752550045.8476508,1.544834,1.663319,0
1752550045.8476508,1.562559,1.631847,0
1752550045.8476508,1.459432,1.628624,0
1752550045.849645,1.338531,1.683461,0
1752550045.8606157,1.378009,1.71891,0
1752550045.8685944,1.463461,1.704408,0
1752550045.870589,1.531138,1.679432,0
1752550045.8775704,1.556113,1.639098,0
1752550045.8785677,1.538389,1.603648,0
1752550045.8815603,1.406207,1.637487,0
1752550045.8855493,1.324834,1.689906,0
1752550045.8855493,1.417487,1.699574,0
1752550045.8855493,1.483603,1.692323,0
1752550045.8855493,1.530332,1.672987,0
1752550045.8865464,1.574644,1.613317,0
1752550045.8865464,1.498911,1.59398,0
1752550045.8985145,1.362701,1.639904,0
1752550045.9015071,1.328057,1.702797,0
1752550045.9085138,1.442463,1.701991,0
1752550045.9104824,1.511801,1.685072,0
1752550045.917464,1.537583,1.658485,0
1752550045.9204829,1.569004,1.613317,0
1752550045.9224513,1.457015,1.622985,0
1752550045.9234762,1.336919,1.677015,0
1752550045.9244716,1.377203,1.711659,0
1752550045.9244716,1.465878,1.714076,0
1752550045.9244716,1.524692,1.677821,0
1752550045.9244716,1.560142,1.650428,0
1752550045.9254434,1.544028,1.614928,0
1752550045.9374104,1.396539,1.627013,0
1752550045.94043,1.315971,1.6891,0
1752550045.9473853,1.410236,1.701186,0
1752550045.950409,1.487631,1.70038,0
1752550045.9553633,1.538389,1.671376,0
1752550045.9583876,1.574644,1.624596,0
1752550045.9613833,1.498105,1.611705,0
1752550045.9623766,1.357061,1.660096,0
1752550045.9623766,1.324028,1.706825,0
1752550045.9623766,1.43924,1.70602,0
1752550045.9623766,1.529526,1.682655,0
1752550045.9633746,1.561753,1.639904,0
1752550045.9653676,1.537583,1.611705,0
1752550045.9763408,1.389288,1.646349,0
1752550045.978337,1.316777,1.703603,0
1752550045.9853144,1.414264,1.711659,0
1752550045.9873157,1.48602,1.690712,0
1752550045.9932992,1.537583,1.656873,0
1752550045.9972508,1.577061,1.619762,0
1752550046.0002422,1.495688,1.613317,0
1752550046.0002422,1.361895,1.663319,0
1752550046.00124,1.328862,1.716494,0
1752550046.00124,1.446542,1.710854,0
1752550046.0022368,1.55853,1.641515,0
1752550046.0152025,1.53436,1.612511,0
1752550046.0201886,1.396539,1.631041,0
1752550046.0241783,1.315971,1.699574,0
1752550046.0261726,1.411847,1.710048,0
1752550046.0331557,1.492465,1.697963,0
1752550046.0351493,1.540806,1.666541,0
1752550046.0371432,1.576255,1.625402,0
1752550046.0401356,1.490854,1.610094,0
1752550046.0401356,1.361089,1.656873,0
1752550046.0401356,1.332891,1.699574,0
1752550046.0411327,1.44493,1.709242,0
1752550046.0411327,1.519858,1.678627,0
1752550046.0411327,1.535166,1.661707,0
1752550046.0531006,1.566587,1.620568,0
1752550046.0560927,1.447347,1.627013,0
1752550046.063106,1.329668,1.686683,0
1752550046.0710855,1.382843,1.723745,0
1752550046.072085,1.468295,1.711659,0
1752550046.0750427,1.527915,1.687489,0
1752550046.0780675,1.56417,1.655262,0
1752550046.0780675,1.538389,1.618956,0
1752550046.0790644,1.382037,1.651234,0
1752550046.0790644,1.315166,1.699574,0
1752550046.0790644,1.413458,1.710048,0
1752550046.0790644,1.494076,1.693129,0
1752550046.0800629,1.542417,1.656873,0
1752550046.092024,1.576255,1.615734,0
1752550046.094025,1.48602,1.613317,0
1752550046.100007,1.363507,1.667347,0
1752550046.1029994,1.334502,1.712465,0
1752550046.1099834,1.43924,1.70602,0
1752550046.112975,1.522275,1.679432,0
1752550046.1149359,1.542417,1.639098,0
1752550046.11693,1.566587,1.592369,0
1752550046.11693,1.44493,1.610094,0
1752550046.11693,1.328862,1.672181,0
1752550046.1179273,1.386065,1.70602,0
1752550046.1179273,1.4691,1.70038,0
1752550046.1189246,1.531943,1.67621,0
1752550046.1309266,1.564976,1.642321,0
1752550046.137906,1.533555,1.613317,0
1752550046.1399016,1.382843,1.643932,0
1752550046.1478887,1.307109,1.70602,0
1752550046.148917,1.418293,1.709242,0
1752550046.1519058,1.492465,1.693129,0
1752550046.154901,1.543223,1.669764,0
1752550046.154901,1.576255,1.628624,0
1752550046.155895,1.482797,1.616539,0
1752550046.155895,1.35545,1.658485,0
1752550046.155895,1.34981,1.704408,0
1752550046.155895,1.443269,1.701991,0
1752550046.1578584,1.521469,1.674598,0
1752550046.1698573,1.547251,1.646349,0
1752550046.1768074,1.556919,1.608482,0
1752550046.178836,1.43924,1.621373,0
1752550046.1868145,1.326445,1.683461,0
1752550046.1878097,1.3909,1.70602,0
1752550046.189806,1.47474,1.693129,0
1752550046.192798,1.531943,1.668153,0
1752550046.1937642,1.569004,1.628624,0
1752550046.1937642,1.530332,1.602843,0
1752550046.1937642,1.383648,1.652845,0
1752550046.1937642,1.311943,1.710048,0
1752550046.1947932,1.418293,1.715688,0
1752550046.1967657,1.497299,1.697157,0
1752550046.2077563,1.542417,1.668959,0
1752550046.2097511,1.577867,1.620568,0
1752550046.216734,1.470712,1.611705,0
1752550046.2237134,1.34981,1.66493,0
1752550046.2247126,1.348199,1.710854,0
1752550046.2277029,1.443269,1.707631,0
1752550046.2306638,1.527109,1.680238,0
1752550046.2316616,1.548862,1.652845,0
1752550046.2316616,1.549668,1.614122,0
1752550046.2316616,1.440851,1.619762,0
1752550046.2326577,1.32564,1.684266,0
1752550046.2326577,1.388482,1.704408,0
1752550046.244635,1.478769,1.698769,0
1752550046.2476213,1.537583,1.671376,0
1752550046.2556293,1.567393,1.639098,0
1752550046.2625806,1.527915,1.621373,0
1752550046.2646127,1.381231,1.646349,0
1752550046.2675676,1.312749,1.70602,0
1752550046.2695625,1.424738,1.710048,0
1752550046.2695625,1.490854,1.70038,0
1752550046.2705595,1.542417,1.65929,0
1752550046.2705595,1.577867,1.614122,0
1752550046.2705595,1.48038,1.613317,0
1752550046.2705595,1.34981,1.666541,0
1752550046.2725544,1.352227,1.705214,0
1752550046.2835245,1.455404,1.704408,0
1752550046.2855198,1.531138,1.665736,0
1752550046.2934992,1.538389,1.650428,0
1752550046.3004794,1.552085,1.600426,0
1752550046.3024743,1.435212,1.620568,0
1752550046.3044686,1.32564,1.688295,0
1752550046.3074605,1.394928,1.714882,0
1752550046.3084586,1.48038,1.705214,0
1752550046.3084586,1.53436,1.679432,0
1752550046.3084586,1.57545,1.631041,0
1752550046.3084586,1.514218,1.610899,0
1752550046.3094559,1.370758,1.652845,0
1752550046.311451,1.315166,1.710854,0
1752550046.321455,1.426349,1.717299,0
1752550046.3234196,1.502133,1.70038,0
1752550046.3304012,1.542417,1.660096,0
1752550046.3323956,1.576255,1.619762,0
1752550046.339408,1.477157,1.615734,0
1752550046.3414056,1.343365,1.672987,0
1752550046.345391,1.351421,1.727773,0
1752550046.3463914,1.457821,1.710048,0
1752550046.3463914,1.522275,1.672987,0
1752550046.3463914,1.548057,1.647155,0
1752550046.3463914,1.555308,1.610094,0
1752550046.3473792,1.427155,1.633458,0
1752550046.3593562,1.319194,1.692323,0
1752550046.3623497,1.401373,1.704408,0
1752550046.368331,1.481186,1.698769,0
1752550046.3713222,1.53436,1.666541,0
1752550046.3773055,1.568199,1.630236,0
1752550046.3802676,1.519858,1.602843,0
1752550046.3832927,1.364312,1.656873,0
1752550046.3842869,1.315971,1.706825,0
1752550046.3842869,1.425544,1.706825,0
1752550046.3852532,1.50455,1.6891,0
1752550046.3852532,1.544834,1.656873,0
1752550046.3852532,1.577061,1.620568,0
1752550046.386286,1.476351,1.622179,0
1752550046.398218,1.332891,1.679432,0
1752550046.4002125,1.361089,1.714882,0
1752550046.407194,1.458627,1.704408,0
1752550046.415173,1.523081,1.685072,0
1752550046.4171999,1.549668,1.658485,0
1752550046.4191942,1.55128,1.615734,0
1752550046.4221857,1.416681,1.641515,0
1752550046.423185,1.327251,1.696352,0
1752550046.423185,1.402179,1.710854,0
1752550046.423185,1.47474,1.705214,0
1752550046.423185,1.531138,1.669764,0
1752550046.423185,1.572227,1.622985,0
1752550046.4251463,1.511801,1.602843,0
1752550046.4371514,1.367535,1.658485,0
1752550046.4441278,1.318389,1.714882,0
1752550046.4465363,1.431183,1.715688,0
1752550046.4485326,1.50455,1.691518,0
1752550046.4555125,1.529526,1.667347,0
1752550046.4575064,1.57545,1.614928,0
1752550046.4614959,1.465878,1.611705,0
1752550046.4614959,1.343365,1.67057,0
1752550046.4614959,1.369146,1.714882,0
1752550046.4614959,1.455404,1.709242,0
1752550046.4624932,1.517441,1.672181,0
1752550046.4624932,1.552085,1.631847,0
1752550046.4644883,1.555308,1.593175,0
1752550046.4754863,1.421515,1.631041,0
1752550046.4834375,1.317583,1.708437,0
1752550046.4864292,1.427961,1.716494,0
1752550046.4934373,1.51019,1.693129,0
1752550046.4954062,1.541611,1.654456,0
1752550046.499396,1.576255,1.609288,0
1752550046.5003927,1.461849,1.615734,0
1752550046.5013893,1.342559,1.673793,0
1752550046.5013893,1.369146,1.710048,0
1752550046.5013893,1.460238,1.701991,0
1752550046.5013893,1.525498,1.67621,0
1752550046.5023863,1.549668,1.645544,0
1752550046.5043814,1.547251,1.614122,0
1752550046.5143552,1.415875,1.632653,0
1752550046.5163503,1.32564,1.686683,0
1752550046.5233302,1.402985,1.710048,0
1752550046.5263226,1.486825,1.705214,0
1752550046.5333042,1.539194,1.674598,0
1752550046.534301,1.577061,1.631041,0
1752550046.5372927,1.500522,1.619762,0
1752550046.5392878,1.366729,1.657679,0
1752550046.540285,1.321611,1.702797,0
1752550046.540285,1.4336,1.709242,0
1752550046.540285,1.511801,1.680238,0
1752550046.541309,1.539194,1.658485,0
1752550046.543309,1.573033,1.613317,0
1752550046.5542474,1.457821,1.616539,0
1752550046.5622265,1.336113,1.668153,0
1752550046.5652208,1.36834,1.703603,0
1752550046.5722322,1.460238,1.704408,0
1752550046.5732286,1.527915,1.679432,0
1752550046.5761902,1.556113,1.640709,0
1752550046.5792136,1.548057,1.60526,0
1752550046.580178,1.413458,1.635875,0
1752550046.580178,1.319194,1.697157,0
1752550046.5812082,1.40943,1.701991,0
1752550046.5812082,1.476351,1.695546,0
1752550046.5812082,1.539194,1.661707,0
1752550046.5821729,1.579478,1.625402,0
1752550046.5951395,1.505356,1.613317,0
1752550046.5971334,1.36834,1.65929,0
1752550046.605111,1.313555,1.703603,0
1752550046.6121254,1.429572,1.705214,0
1752550046.614101,1.511801,1.684266,0
1752550046.6160836,1.547251,1.652845,0
1752550046.6200714,1.573838,1.616539,0
1752550046.6200714,1.460238,1.618956,0
1752550046.6200714,1.342559,1.677821,0
1752550046.6210697,1.374786,1.715688,0
1752550046.6210697,1.455404,1.722133,0
1752550046.6210697,1.524692,1.679432,0
1752550046.6210697,1.560142,1.650428,0
1752550046.634035,1.540806,1.612511,0
1752550046.6400182,1.410236,1.639904,0
1752550046.6440399,1.324834,1.703603,0
1752550046.652019,1.400568,1.714882,0
1752550046.6530156,1.489242,1.70038,0
1752550046.6560082,1.541611,1.67057,0
1752550046.6590035,1.570616,1.626207,0
1752550046.6590035,1.499716,1.611705,0
1752550046.6590035,1.36834,1.657679,0
1752550046.6599975,1.324028,1.713271,0
1752550046.6599975,1.4336,1.718105,0
1752550046.6599975,1.516635,1.689906,0
1752550046.6599975,1.543223,1.656873,0
1752550046.6729302,1.563365,1.615734,0
1752550046.675923,1.459432,1.618956,0
1752550046.6819074,1.339336,1.67057,0
1752550046.685895,1.380426,1.710048,0
1752550046.6948729,1.461044,1.70038,0
1752550046.6968668,1.525498,1.65929,0
1752550046.7008562,1.556919,1.637487,0
1752550046.7028503,1.539194,1.602843,0
1752550046.7028503,1.411847,1.636681,0
1752550046.7028503,1.31436,1.709242,0
1752550046.7028503,1.402985,1.714882,0
1752550046.703848,1.490854,1.695546,0
1752550046.703848,1.53436,1.663319,0
1752550046.703848,1.577867,1.622179,0
1752550046.7048454,1.493271,1.621373,0
1752550046.7168136,1.366729,1.668153,0
1752550046.7188072,1.329668,1.72455,0
1752550046.7267864,1.440046,1.712465,0
1752550046.734765,1.516635,1.689906,0
1752550046.7367597,1.53436,1.663319,0
1752550046.7387543,1.567393,1.618151,0
1752550046.7407486,1.422321,1.638293,0
1752550046.741746,1.316777,1.703603,0
1752550046.7427435,1.410236,1.714882,0
1752550046.7427435,1.489242,1.696352,0
1752550046.7427435,1.536777,1.666541,0
1752550046.7427435,1.57545,1.626207,0
1752550046.7457354,1.492465,1.602843,0
1752550046.756706,1.361895,1.655262,0
1752550046.7587278,1.332085,1.718105,0
1752550046.7666798,1.440046,1.710048,0
1752550046.7746577,1.509384,1.683461,0
1752550046.7766805,1.542417,1.640709,0
1752550046.7786472,1.55853,1.602037,0
1752550046.7816408,1.452181,1.602843,0
1752550046.7816408,1.338531,1.65929,0
1752550046.7816408,1.383648,1.70602,0
1752550046.7826385,1.460238,1.696352,0
1752550046.7826385,1.526303,1.668153,0
1752550046.7826385,1.571421,1.626207,0
1752550046.7846315,1.527915,1.598009,0
1752550046.7965994,1.390094,1.638293,0
1752550046.803581,1.324028,1.698769,0
1752550046.8065724,1.408624,1.711659,0
1752550046.8135548,1.490854,1.698769,0
1752550046.8175435,1.544834,1.656068,0
1752550046.8205352,1.576255,1.627819,0
1752550046.8205352,1.491659,1.618151,0
1752550046.8215327,1.353838,1.656873,0
1752550046.8215327,1.336113,1.702797,0
1752550046.8215327,1.449764,1.695546,0
1752550046.8215327,1.519052,1.679432,0
1752550046.8225298,1.537583,1.650428,0
1752550046.8235273,1.562559,1.606871,0
1752550046.8354955,1.445736,1.622985,0
1752550046.843474,1.332891,1.686683,0
1752550046.8464658,1.383648,1.712465,0
1752550046.8534472,1.468295,1.702797,0
1752550046.8554418,1.532749,1.683461,0
1752550046.8584337,1.560142,1.642321,0
1752550046.8604286,1.527915,1.612511,0
1752550046.8604286,1.387677,1.641515,0
1752550046.8614259,1.317583,1.698769,0
1752550046.8614259,1.419098,1.706825,0
1752550046.8614259,1.498105,1.696352,0
1752550046.8614259,1.526303,1.677015,0
1752550046.862424,1.573838,1.627013,0
1752550046.8754213,1.487631,1.618956,0
1752550046.8834047,1.357867,1.655262,0
1752550046.8853962,1.345782,1.708437,0
1752550046.8933742,1.451376,1.711659,0
1752550046.8953688,1.524692,1.696352,0
1752550046.8983302,1.52872,1.67057,0
1752550046.9013531,1.557725,1.609288,0
1752550046.9013531,1.440851,1.627013,0
1752550046.9013531,1.326445,1.682655,0
1752550046.9013531,1.386065,1.709242,0
1752550046.9023483,1.476351,1.706825,0
1752550046.9023483,1.531943,1.67621,0
1752550046.9023483,1.567393,1.633458,0
1752550046.9043515,1.523886,1.611705,0
1752550046.9152846,1.380426,1.644738,0
1752550046.9182742,1.315971,1.70602,0
1752550046.926279,1.419098,1.714882,0
1752550046.9342313,1.496493,1.699574,0
1752550046.9352288,1.54564,1.667347,0
1752550046.9382207,1.577061,1.620568,0
1752550046.9412127,1.477157,1.615734,0
1752550046.9422097,1.354644,1.664124,0
1752550046.9422097,1.347393,1.711659,0
1752550046.9422097,1.445736,1.706825,0
1752550046.9422097,1.521469,1.679432,0
1752550046.9422097,1.542417,1.652039,0
1752550046.9432075,1.561753,1.609288,0
1752550046.9561725,1.43924,1.625402,0
1752550046.9591646,1.328862,1.6891,0
1752550046.9661467,1.386871,1.708437,0
1752550046.9701352,1.479574,1.70038,0
1752550046.9751217,1.532749,1.671376,0
1752550046.979111,1.560142,1.634264,0
1752550046.9821038,1.524692,1.610094,0
1752550046.9821038,1.377203,1.650428,0
1752550046.9831004,1.318389,1.698769,0
1752550046.9831004,1.418293,1.717299,0
1752550046.9831004,1.490854,1.701991,0
1752550046.9831004,1.535972,1.667347,0
1752550046.9840987,1.566587,1.600426,0
1752550046.9960659,1.4336,1.624596,0
1752550046.999058,1.330474,1.683461,0
1752550047.0060394,1.387677,1.711659,0
1752550047.0130205,1.473129,1.708437,0
1752550047.0180078,1.538389,1.678627,0
1752550047.020999,1.563365,1.651234,0
1752550047.0239909,1.525498,1.627013,0
1752550047.0239909,1.37962,1.657679,0
1752550047.0239909,1.316777,1.710048,0
1752550047.0239909,1.419098,1.716494,0
1752550047.0239909,1.502133,1.701991,0
1752550047.024989,1.54,1.66493,0
1752550047.024989,1.574644,1.612511,0
1752550047.024989,1.47474,1.601231,0
1752550047.038951,1.347393,1.654456,0
1752550047.0409462,1.351421,1.70602,0
1752550047.0479367,1.452987,1.704408,0
1752550047.0509195,1.529526,1.672987,0
1752550047.0569034,1.537583,1.633458,0
1752550047.0598953,1.543223,1.60526,0
1752550047.0629175,1.429572,1.625402,0
1752550047.0638838,1.333696,1.678627,0
1752550047.0648818,1.390094,1.715688,0
1752550047.0648818,1.481186,1.704408,0
1752550047.0648818,1.535166,1.672987,0
1752550047.0648818,1.564976,1.639098,0
1752550047.0658805,1.522275,1.620568,0
1752550047.066916,1.375592,1.654456,0
1752550047.078844,1.316777,1.708437,0
1752550047.0808392,1.424738,1.705214,0
1752550047.0878532,1.499716,1.689906,0
1752550047.0898468,1.542417,1.654456,0
1752550047.0977983,1.574644,1.616539,0
1752550047.0997894,1.47474,1.606871,0
1752550047.10278,1.349004,1.667347,0
1752550047.1047754,1.357867,1.715688,0
1752550047.1047754,1.448153,1.70038,0
1752550047.1057725,1.527915,1.677015,0
1752550047.1057725,1.541611,1.651234,0
1752550047.1057725,1.555308,1.609288,0
1752550047.1057725,1.434406,1.62379,0
1752550047.1187377,1.32,1.695546,0
1752550047.1267161,1.394122,1.708437,0
1752550047.129708,1.478769,1.691518,0
1752550047.137687,1.535972,1.672987,0
1752550047.1407135,1.568199,1.634264,0
1752550047.1437037,1.515024,1.606871,0
1752550047.1446955,1.369952,1.653651,0
1752550047.1446955,1.317583,1.709242,0
1752550047.1446955,1.42071,1.701991,0
1752550047.1456661,1.502133,1.689906,0
1752550047.1456661,1.543223,1.662513,0
1752550047.1456661,1.573838,1.614122,0
1752550047.1456661,1.473129,1.622179,0
1752550047.1486604,1.344976,1.677821,0
1752550047.159656,1.354644,1.717299,0
1752550047.160626,1.457015,1.702797,0
1752550047.1696014,1.526303,1.677015,0
1752550047.1776378,1.55128,1.644738,0
1752550047.1792533,1.552085,1.618151,0
1752550047.1827514,1.425544,1.633458,0
1752550047.185743,1.322417,1.683461,0
1752550047.185743,1.398956,1.711659,0
1752550047.185743,1.483603,1.709242,0
1752550047.18674,1.531943,1.679432,0
1752550047.18674,1.56981,1.639904,0
1752550047.18674,1.518247,1.618956,0
1752550047.18674,1.370758,1.660096,0
1752550047.1997058,1.315971,1.699574,0
1752550047.2026975,1.432795,1.698769,0
1752550047.2096786,1.498105,1.67621,0
1752550047.2186542,1.541611,1.657679,0
1752550047.2196517,1.580284,1.614928,0
1752550047.2226727,1.465072,1.619762,0
1752550047.2256362,1.34417,1.667347,0
1752550047.2256362,1.362701,1.706825,0
1752550047.2266338,1.458627,1.701991,0
1752550047.2266338,1.526303,1.673793,0
1752550047.2266338,1.550474,1.647155,0
1752550047.2266338,1.549668,1.606871,0
1752550047.2266338,1.42071,1.627013,0
1752550047.2296576,1.324834,1.6891,0
1752550047.2395985,1.399762,1.709242,0
1752550047.2425907,1.48038,1.702797,0
1752550047.250569,1.541611,1.666541,0
1752550047.2585478,1.571421,1.622179,0
1752550047.2595453,1.464266,1.627819,0
1752550047.262537,1.336919,1.678627,0
1752550047.2665277,1.366729,1.722939,0
1752550047.2665277,1.465072,1.714882,0
1752550047.2665277,1.532749,1.684266,0
1752550047.2665277,1.537583,1.662513,0
1752550047.267524,1.552085,1.612511,0
1752550047.267524,1.421515,1.630236,0
1752550047.2685213,1.321611,1.6891,0
1752550047.28049,1.402985,1.710854,0
1752550047.2884676,1.481186,1.70602,0
1752550047.2914596,1.54,1.664124,0
1752550047.29944,1.571421,1.620568,0
1752550047.3004358,1.506162,1.600426,0
1752550047.30346,1.36834,1.644738,0
1752550047.3054233,1.32,1.70038,0
1752550047.3064463,1.431183,1.699574,0
1752550047.3064463,1.506967,1.678627,0
1752550047.3074434,1.544028,1.655262,0
1752550047.3074434,1.573838,1.607677,0
1752550047.3074434,1.454598,1.618151,0
1752550047.3084154,1.338531,1.672181,0
1752550047.3203824,1.369146,1.715688,0
1752550047.3233743,1.457015,1.708437,0
1752550047.330357,1.525498,1.684266,0
1752550047.3323529,1.557725,1.652039,0
1752550047.340329,1.543223,1.600426,0
1752550047.3413584,1.411847,1.626207,0
1752550047.343321,1.324834,1.686683,0
1752550047.346313,1.404596,1.710048,0
1752550047.3473113,1.483603,1.70602,0
1752550047.3483095,1.540806,1.67621,0
1752550047.3483095,1.56981,1.633458,0
1752550047.3483095,1.494882,1.616539,0
1752550047.3483095,1.365118,1.665736,0
1752550047.350304,1.323223,1.719716,0
1752550047.36227,1.436017,1.713271,0
1752550047.3642972,1.508579,1.690712,0
1752550047.3722448,1.539194,1.656873,0
1752550047.3802235,1.568199,1.612511,0
1752550047.3802235,1.457015,1.626207,0
1752550047.3832152,1.336113,1.682655,0
