timestamp,v1,v2,label
1752550930.1803684,1.369146,1.685878,0
1752550930.1813657,1.412653,1.686683,0
1752550930.1813657,1.446542,1.685878,0
1752550930.1813657,1.473935,1.692323,0
1752550930.1823623,1.513413,1.683461,0
1752550930.193334,1.539194,1.677015,0
1752550930.1953285,1.554502,1.671376,0
1752550930.2023096,1.55853,1.665736,0
1752550930.204304,1.581089,1.664124,0
1752550930.2112856,1.60526,1.657679,0
1752550930.2122834,1.608482,1.643932,0
1752550930.2152753,1.581089,1.640709,0
1752550930.2172704,1.53436,1.645544,0
1752550930.2182672,1.477963,1.647961,0
1752550930.2192965,1.413458,1.658485,0
1752550930.2192965,1.345782,1.671376,0
1752550930.220261,1.308721,1.678627,0
1752550930.220261,1.272465,1.692323,0
1752550930.2212584,1.336919,1.686683,0
1752550930.2212584,1.378814,1.685072,0
1752550930.2212584,1.410236,1.685878,0
1752550930.2222557,1.442463,1.683461,0
1752550930.2222557,1.470712,1.687489,0
1752550930.2232533,1.508579,1.685878,0
1752550930.2232533,1.531943,1.681044,0
1752550930.2232533,1.550474,1.67621,0
1752550930.2242506,1.564976,1.668153,0
1752550930.2242506,1.586729,1.656068,0
1752550930.2362516,1.612511,1.639904,0
1752550930.2382457,1.609288,1.633458,0
1752550930.2442296,1.577061,1.631041,0
1752550930.2472236,1.52872,1.628624,0
1752550930.2542033,1.469906,1.631041,0
1752550930.255202,1.40379,1.641515,0
1752550930.2581935,1.349004,1.650428,0
1752550930.260192,1.31436,1.654456,0
1752550930.2621822,1.282939,1.667347,0
1752550930.2621822,1.279716,1.67621,0
1752550930.2621822,1.328057,1.677821,0
1752550930.2621822,1.373175,1.682655,0
1752550930.2631812,1.413458,1.680238,0
1752550930.2631812,1.444124,1.684266,0
1752550930.2631812,1.466683,1.686683,0
1752550930.2631812,1.502133,1.688295,0
1752550930.2641444,1.530332,1.685072,0
1752550930.2641444,1.55128,1.679432,0
1752550930.2641444,1.566587,1.672987,0
1752550930.2641444,1.585924,1.660902,0
1752550930.2641444,1.609288,1.647961,0
1752550930.2651749,1.606066,1.639098,0
1752550930.2651749,1.581089,1.633458,0
1752550930.2651749,1.530332,1.632653,0
1752550930.2651749,1.470712,1.637487,0
1752550930.275147,1.410236,1.645544,0
1752550930.277142,1.353838,1.658485,0
1752550930.2850885,1.313555,1.667347,0
1752550930.287083,1.283744,1.677821,0
1752550930.2940967,1.282939,1.686683,0
1752550930.2960906,1.332085,1.685072,0
1752550930.2980866,1.375592,1.682655,0
1752550930.3010783,1.407013,1.680238,0
1752550930.302076,1.442463,1.683461,0
1752550930.303075,1.479574,1.683461,0
1752550930.303075,1.517441,1.683461,0
1752550930.303075,1.539194,1.682655,0
1752550930.303075,1.550474,1.682655,0
1752550930.303075,1.55853,1.677015,0
1752550930.3040383,1.587535,1.666541,0
1752550930.3040383,1.614122,1.655262,0
1752550930.3040383,1.604454,1.647155,0
1752550930.3040383,1.576255,1.647155,0
1752550930.3050678,1.524692,1.650428,0
1752550930.3050678,1.468295,1.651234,0
1752550930.3050678,1.398956,1.652845,0
1752550930.3050678,1.344976,1.661707,0
1752550930.3060327,1.311943,1.671376,0
1752550930.3060327,1.285356,1.681044,0
1752550930.3120155,1.28455,1.688295,0
1752550930.3189988,1.339336,1.6891,0
1752550930.321024,1.380426,1.692323,0
1752550930.3280053,1.410236,1.686683,0
1752550930.331004,1.441657,1.685878,0
1752550930.3379798,1.470712,1.687489,0
1752550930.3399744,1.51019,1.684266,0
1752550930.3419693,1.577867,1.666541,0
1752550930.344962,1.614928,1.641515,0
1752550930.344962,1.593175,1.637487,0
1752550930.3459587,1.55853,1.633458,0
1752550930.3459587,1.499716,1.634264,0
1752550930.3459587,1.441657,1.640709,0
1752550930.3459587,1.364312,1.650428,0
1752550930.3469548,1.328057,1.65929,0
1752550930.3469548,1.29583,1.669764,0
1752550930.3469548,1.267631,1.682655,0
1752550930.3469548,1.301469,1.687489,0
1752550930.3469548,1.348199,1.685878,0
1752550930.3479524,1.388482,1.683461,0
1752550930.3479524,1.423932,1.684266,0
1752550930.3479524,1.461044,1.685878,0
1752550930.3479524,1.503745,1.686683,0
1752550930.3489506,1.536777,1.678627,0
1752550930.3489506,1.55128,1.669764,0
1752550930.357894,1.569004,1.664124,0
1752550930.3609173,1.576255,1.658485,0
1752550930.3619158,1.600426,1.656873,0
1752550930.3698947,1.602843,1.655262,0
1752550930.371888,1.583507,1.652039,0
1752550930.37784,1.548057,1.647961,0
1752550930.380833,1.494076,1.643932,0
1752550930.3838236,1.437629,1.652845,0
1752550930.3848207,1.367535,1.657679,0
1752550930.3858192,1.328862,1.663319,0
1752550930.3858192,1.293413,1.673793,0
1752550930.3858192,1.275688,1.683461,0
1752550930.3858192,1.312749,1.685072,0
1752550930.3868158,1.35545,1.687489,0
1752550930.3868158,1.392511,1.689906,0
1752550930.3868158,1.431989,1.690712,0
1752550930.3868158,1.462655,1.687489,0
1752550930.3868158,1.502939,1.680238,0
1752550930.3878133,1.530332,1.677821,0
1752550930.3878133,1.547251,1.672181,0
1752550930.3878133,1.560948,1.665736,0
1752550930.3878133,1.569004,1.656873,0
1752550930.388811,1.598009,1.647961,0
1752550930.388811,1.610094,1.642321,0
1752550930.3978193,1.584312,1.638293,0
1752550930.399814,1.547251,1.639098,0
1752550930.4017758,1.491659,1.640709,0
1752550930.4087582,1.438434,1.640709,0
1752550930.4157388,1.365118,1.647961,0
1752550930.4177344,1.322417,1.653651,0
1752550930.4207535,1.294218,1.664124,0
1752550930.422755,1.277299,1.671376,0
1752550930.4247487,1.318389,1.673793,0
1752550930.4257114,1.358672,1.681044,0
1752550930.4257114,1.394928,1.684266,0
1752550930.4257114,1.431183,1.690712,0
1752550930.4267426,1.461044,1.693935,0
1752550930.4267426,1.497299,1.697157,0
1752550930.4267426,1.531138,1.693935,0
1752550930.4267426,1.549668,1.680238,0
1752550930.4267426,1.560142,1.67057,0
1752550930.427739,1.577061,1.665736,0
1752550930.427739,1.600426,1.65929,0
1752550930.427739,1.607677,1.651234,0
1752550930.427739,1.584312,1.645544,0
1752550930.427739,1.548057,1.640709,0
1752550930.4287367,1.492465,1.639904,0
1752550930.4287367,1.438434,1.640709,0
1752550930.4287367,1.365118,1.648766,0
1752550930.4386773,1.328057,1.653651,0
1752550930.4416692,1.29019,1.660096,0
1752550930.4486828,1.272465,1.668153,0
1752550930.4516797,1.315971,1.669764,0
1752550930.4586236,1.353838,1.674598,0
1752550930.460618,1.3909,1.685878,0
1752550930.4636111,1.432795,1.6891,0
1752550930.466605,1.466683,1.688295,0
1752550930.466605,1.505356,1.685072,0
1752550930.466605,1.538389,1.682655,0
1752550930.466605,1.553697,1.682655,0
1752550930.466605,1.556113,1.67621,0
1752550930.4676018,1.568199,1.67057,0
1752550930.4676018,1.598009,1.658485,0
1752550930.4676018,1.59398,1.651234,0
1752550930.4676018,1.547251,1.638293,0
1752550930.4685986,1.490854,1.631041,0
1752550930.4685986,1.432795,1.637487,0
1752550930.4685986,1.360284,1.650428,0
1752550930.4685986,1.318389,1.661707,0
1752550930.4685986,1.289384,1.67057,0
1752550930.4695954,1.276493,1.682655,0
1752550930.4695954,1.317583,1.682655,0
1752550930.4695954,1.358672,1.687489,0
1752550930.4795945,1.395734,1.695546,0
1752550930.481596,1.434406,1.692323,0
1752550930.489541,1.465072,1.687489,0
1752550930.4915366,1.494076,1.684266,0
1752550930.499514,1.527915,1.677015,0
1752550930.5015104,1.55128,1.668153,0
1752550930.504013,1.569004,1.661707,0
1752550930.5070045,1.578672,1.656873,0
1752550930.5080013,1.606066,1.642321,0
1752550930.5080013,1.614928,1.635875,0
1752550930.5080013,1.585924,1.633458,0
1752550930.5080013,1.542417,1.631041,0
1752550930.5089989,1.486825,1.630236,0
1752550930.5089989,1.427155,1.633458,0
1752550930.5089989,1.356255,1.643932,0
1752550930.5089989,1.319194,1.655262,0
1752550930.5089989,1.29019,1.665736,0
1752550930.509996,1.274076,1.677821,0
1752550930.509996,1.323223,1.677015,0
1752550930.509996,1.365118,1.680238,0
1752550930.509996,1.399762,1.687489,0
1752550930.5109937,1.438434,1.690712,0
1752550930.5109937,1.467489,1.693935,0
1752550930.5109937,1.500522,1.690712,0
1752550930.5209997,1.531943,1.692323,0
1752550930.5229938,1.55128,1.686683,0
1752550930.5249927,1.556919,1.678627,0
1752550930.5319695,1.577061,1.668153,0
1752550930.533932,1.60526,1.656873,0
1752550930.5409448,1.613317,1.644738,0
1752550930.5419466,1.584312,1.638293,0
1752550930.5439053,1.539194,1.63507,0
1752550930.5469294,1.486825,1.635875,0
1752550930.5489287,1.427961,1.644738,0
1752550930.5489287,1.357061,1.658485,0
1752550930.549922,1.319194,1.66493,0
1752550930.549922,1.286162,1.672987,0
1752550930.549922,1.271659,1.681044,0
1752550930.549922,1.316777,1.6891,0
1752550930.550886,1.357867,1.693935,0
1752550930.550886,1.398956,1.695546,0
1752550930.550886,1.438434,1.697157,0
1752550930.550886,1.473935,1.698769,0
1752550930.5518858,1.510996,1.693935,0
1752550930.5518858,1.537583,1.692323,0
1752550930.5518858,1.553697,1.685878,0
1752550930.5518858,1.563365,1.677821,0
1752550930.5518858,1.571421,1.663319,0
1752550930.5528827,1.601231,1.651234,0
1752550930.5528827,1.611705,1.643932,0
1752550930.561892,1.588341,1.639904,0
1752550930.5628872,1.544834,1.637487,0
1752550930.564886,1.488437,1.631847,0
1752550930.5728278,1.422321,1.637487,0
1752550930.5748234,1.342559,1.652845,0
1752550930.5768178,1.308721,1.664124,0
1752550930.5837991,1.283744,1.668153,0
1752550930.5857978,1.270048,1.677015,0
1752550930.5878198,1.322417,1.682655,0
1752550930.590814,1.36834,1.682655,0
1752550930.590814,1.402985,1.6891,0
1752550930.5918097,1.436017,1.695546,0
1752550930.5918097,1.465878,1.693129,0
1752550930.5918097,1.505356,1.685072,0
1752550930.5918097,1.537583,1.680238,0
1752550930.5928063,1.556919,1.67621,0
1752550930.5928063,1.56981,1.671376,0
1752550930.5928063,1.585924,1.660096,0
1752550930.5928063,1.611705,1.653651,0
1752550930.5928063,1.611705,1.647961,0
1752550930.5937715,1.580284,1.641515,0
1752550930.5937715,1.536777,1.639098,0
1752550930.5937715,1.481186,1.634264,0
1752550930.5937715,1.426349,1.634264,0
1752550930.5948043,1.352227,1.643932,0
1752550930.5948043,1.315166,1.65929,0
1752550930.6047747,1.285356,1.673793,0
1752550930.606772,1.270854,1.684266,0
1752550930.6087656,1.321611,1.689906,0
1752550930.6147506,1.369146,1.689906,0
1752550930.6216972,1.399762,1.687489,0
1752550930.625687,1.437629,1.685878,0
1752550930.6286783,1.471517,1.685072,0
1752550930.6316712,1.502133,1.685072,0
1752550930.6326692,1.532749,1.682655,0
1752550930.6326692,1.550474,1.677821,0
1752550930.6326692,1.562559,1.673793,0
1752550930.6326692,1.581895,1.669764,0
1752550930.6336672,1.602843,1.667347,0
1752550930.6336672,1.60526,1.660096,0
1752550930.6336672,1.584312,1.650428,0
1752550930.6336672,1.538389,1.645544,0
1752550930.6336672,1.479574,1.646349,0
1752550930.6346638,1.421515,1.652845,0
1752550930.6346638,1.356255,1.658485,0
1752550930.6346638,1.316777,1.669764,0
1752550930.6346638,1.287773,1.677821,0
1752550930.6356614,1.277299,1.685072,0
1752550930.6356614,1.323223,1.682655,0
1752550930.6356614,1.361895,1.686683,0
1752550930.6446676,1.395734,1.690712,0
1752550930.6466312,1.436017,1.691518,0
1752550930.6496236,1.472323,1.696352,0
1752550930.6576016,1.510996,1.697157,0
1752550930.6655803,1.538389,1.692323,0
1752550930.6665778,1.557725,1.687489,0
1752550930.6695693,1.562559,1.684266,0
1752550930.6725614,1.585924,1.671376,0
1752550930.6735585,1.613317,1.654456,0
1752550930.6735585,1.612511,1.639098,0
1752550930.6745567,1.579478,1.633458,0
1752550930.6745567,1.531138,1.631847,0
1752550930.6745567,1.471517,1.632653,0
1752550930.6745567,1.41507,1.641515,0
1752550930.6745567,1.349004,1.653651,0
1752550930.6755533,1.313555,1.666541,0
1752550930.6755533,1.289384,1.678627,0
1752550930.6755533,1.278105,1.679432,0
1752550930.6755533,1.330474,1.677821,0
1752550930.6765509,1.370758,1.682655,0
1752550930.6765509,1.405402,1.684266,0
1752550930.6765509,1.441657,1.688295,0
1752550930.6765509,1.469906,1.684266,0
1752550930.6775482,1.505356,1.684266,0
1752550930.683533,1.536777,1.679432,0
1752550930.6885192,1.55128,1.673793,0
1752550930.6905134,1.560948,1.672987,0
1752550930.6974945,1.591563,1.664124,0
1752550930.7014837,1.615734,1.646349,0
1752550930.707472,1.613317,1.635875,0
1752550930.7104635,1.580284,1.62943,0
1752550930.7124581,1.532749,1.628624,0
1752550930.71545,1.479574,1.628624,0
1752550930.71545,1.407819,1.635875,0
1752550930.71545,1.341753,1.656873,0
1752550930.71545,1.304692,1.673793,0
1752550930.7164466,1.281327,1.682655,0
1752550930.7164466,1.272465,1.6891,0
1752550930.7164466,1.321611,1.691518,0
1752550930.7164466,1.367535,1.6891,0
1752550930.7164466,1.407819,1.691518,0
1752550930.717444,1.442463,1.6891,0
1752550930.717444,1.473935,1.684266,0
1752550930.717444,1.51019,1.684266,0
1752550930.717444,1.542417,1.680238,0
1752550930.717444,1.556919,1.674598,0
1752550930.7184412,1.568199,1.67057,0
1752550930.7184412,1.585924,1.663319,0
1752550930.7184412,1.608482,1.647961,0
1752550930.7194712,1.613317,1.639904,0
1752550930.7194712,1.579478,1.633458,0
1752550930.7274177,1.530332,1.628624,0
1752550930.73041,1.47474,1.632653,0
1752550930.7334034,1.410236,1.638293,0
1752550930.7413807,1.350616,1.647155,0
1752550930.7433748,1.31436,1.654456,0
1752550930.7493594,1.28455,1.667347,0
1752550930.7523835,1.273271,1.678627,0
1752550930.7553437,1.326445,1.685072,0
1752550930.7573378,1.370758,1.6891,0
1752550930.7573378,1.407013,1.693129,0
1752550930.7573378,1.443269,1.69474,0
1752550930.7573378,1.477157,1.697157,0
1752550930.7583356,1.515024,1.696352,0
1752550930.7583356,1.539194,1.692323,0
1752550930.7583356,1.554502,1.685878,0
1752550930.7583356,1.566587,1.672181,0
1752550930.7593322,1.584312,1.656068,0
1752550930.7593322,1.60526,1.645544,0
1752550930.7593322,1.607677,1.638293,0
1752550930.7593322,1.577061,1.633458,0
1752550930.7593322,1.529526,1.631041,0
1752550930.7603295,1.468295,1.634264,0
1752550930.7603295,1.402985,1.639904,0
1752550930.7603295,1.352227,1.640709,0
1752550930.7603295,1.319194,1.647961,0
1752550930.7713006,1.292607,1.661707,0
1752550930.7733269,1.281327,1.663319,0
1752550930.7803044,1.328057,1.66493,0
1752550930.7822704,1.366729,1.677015,0
1752550930.7912872,1.394122,1.685878,0
1752550930.7912872,1.432795,1.693129,0
1752550930.7942731,1.457015,1.701991,0
1752550930.796267,1.492465,1.701186,0
1752550930.7982621,1.535166,1.693129,0
1752550930.7992253,1.556919,1.683461,0
1752550930.7992253,1.572227,1.680238,0
1752550930.7992253,1.59962,1.668153,0
1752550930.8002224,1.620568,1.663319,0
1752550930.8002224,1.614122,1.651234,0
1752550930.8002224,1.579478,1.640709,0
1752550930.8012218,1.526303,1.639098,0
1752550930.8012218,1.467489,1.638293,0
1752550930.8012218,1.408624,1.641515,0
1752550930.8022568,1.356255,1.647155,0
1752550930.8022568,1.31436,1.654456,0
1752550930.8022568,1.286967,1.665736,0
1752550930.803263,1.282939,1.674598,0
1752550930.803263,1.332085,1.681044,0
1752550930.8042455,1.372369,1.685878,0
1752550930.8042455,1.410236,1.686683,0
1752550930.8042455,1.44493,1.685878,0
1752550930.8142195,1.477157,1.683461,0
1752550930.817178,1.513413,1.677015,0
1752550930.824159,1.540806,1.672987,0
1752550930.8261545,1.553697,1.669764,0
1752550930.8341653,1.564976,1.671376,0
1752550930.8361275,1.585924,1.660902,0
1752550930.8381214,1.607677,1.645544,0
1752550930.8401163,1.602843,1.633458,0
1752550930.8421116,1.574644,1.627013,0
1752550930.8421116,1.527109,1.624596,0
1752550930.8421116,1.473129,1.624596,0
1752550930.8431356,1.407819,1.633458,0
1752550930.8431356,1.346587,1.645544,0
1752550930.8431356,1.306304,1.661707,0
1752550930.8431356,1.282133,1.672987,0
1752550930.844106,1.279716,1.679432,0
1752550930.844106,1.332085,1.684266,0
1752550930.844106,1.373175,1.686683,0
1752550930.844106,1.408624,1.689906,0
1752550930.844106,1.445736,1.695546,0
1752550930.8451347,1.473129,1.698769,0
1752550930.8451347,1.513413,1.693129,0
1752550930.8451347,1.537583,1.685072,0
1752550930.8451347,1.556919,1.678627,0
1752550930.8461387,1.56981,1.673793,0
1752550930.8571043,1.586729,1.662513,0
1752550930.8590972,1.607677,1.654456,0
1752550930.8660467,1.602037,1.647961,0
1752550930.8690705,1.573838,1.647155,0
1752550930.8710706,1.524692,1.646349,0
1752550930.87705,1.469906,1.643932,0
1752550930.879044,1.40379,1.651234,0
1752550930.88104,1.351421,1.655262,0
1752550930.885029,1.315166,1.661707,0
1752550930.885029,1.281327,1.674598,0
1752550930.885029,1.285356,1.680238,0
1752550930.885029,1.343365,1.674598,0
1752550930.8859937,1.386065,1.67621,0
1752550930.8859937,1.413458,1.677821,0
1752550930.8859937,1.443269,1.673793,0
1752550930.8859937,1.448153,1.685072,0
1752550930.8859937,1.48038,1.692323,0
1752550930.886991,1.525498,1.679432,0
1752550930.886991,1.553697,1.67057,0
1752550930.886991,1.577867,1.663319,0
1752550930.886991,1.610899,1.654456,0
1752550930.888015,1.606871,1.646349,0
1752550930.888015,1.579478,1.650428,0
1752550930.888015,1.529526,1.640709,0
1752550930.888015,1.479574,1.635875,0
1752550930.8989584,1.406207,1.643932,0
1752550930.9009533,1.352227,1.643932,0
1752550930.9073908,1.315166,1.657679,0
1752550930.9093852,1.286162,1.67057,0
1752550930.9113479,1.286967,1.67621,0
1752550930.9183285,1.341753,1.678627,0
1752550930.9203236,1.380426,1.677821,0
1752550930.922318,1.413458,1.675404,0
1752550930.926308,1.448153,1.675404,0
1752550930.926308,1.479574,1.67057,0
1752550930.926308,1.517441,1.669764,0
1752550930.926308,1.541611,1.664124,0
1752550930.9273043,1.557725,1.658485,0
1752550930.9273043,1.566587,1.654456,0
1752550930.9273043,1.585924,1.647155,0
1752550930.9283025,1.608482,1.638293,0
1752550930.9283025,1.60526,1.62943,0
1752550930.9283025,1.570616,1.628624,0
1752550930.9283025,1.522275,1.627013,0
1752550930.9283025,1.465878,1.633458,0
1752550930.929299,1.397345,1.640709,0
1752550930.929299,1.343365,1.647961,0
1752550930.929299,1.306304,1.658485,0
1752550930.929299,1.279716,1.673793,0
1752550930.9302974,1.283744,1.684266,0
1752550930.9302974,1.336919,1.684266,0
1752550930.932291,1.37962,1.685072,0
1752550930.9412675,1.414264,1.685072,0
1752550930.9432628,1.448958,1.691518,0
1752550930.9502451,1.477157,1.70038,0
1752550930.9532356,1.515024,1.709242,0
1752550930.9602177,1.541611,1.711659,0
1752550930.9622114,1.556919,1.702797,0
1752550930.9642062,1.570616,1.689906,0
1752550930.9671998,1.589952,1.677821,0
1752550930.9681947,1.610094,1.666541,0
1752550930.969194,1.601231,1.656873,0
1752550930.969194,1.569004,1.645544,0
1752550930.969194,1.517441,1.640709,0
1752550930.969194,1.461849,1.641515,0
1752550930.969194,1.394122,1.647155,0
1752550930.97019,1.343365,1.65929,0
1752550930.97019,1.301469,1.669764,0
1752550930.97019,1.282133,1.677821,0
1752550930.97019,1.283744,1.682655,0
1752550930.97019,1.341753,1.683461,0
1752550930.9711874,1.381231,1.685072,0
1752550930.9711874,1.414264,1.686683,0
1752550930.9711874,1.448153,1.687489,0
1752550930.9721856,1.481186,1.689906,0
1752550930.9721856,1.518247,1.685878,0
1752550930.976174,1.541611,1.685072,0
1752550930.9831562,1.556919,1.679432,0
1752550930.985151,1.567393,1.674598,0
1752550930.9921322,1.592369,1.668153,0
1752550930.9951231,1.611705,1.654456,0
1752550931.0021062,1.604454,1.650428,0
1752550931.004311,1.572227,1.641515,0
1752550931.0062978,1.519858,1.640709,0
1752550931.0082932,1.464266,1.643126,0
1752550931.0092907,1.3909,1.652845,0
1752550931.0102878,1.343365,1.655262,0
1752550931.0102878,1.306304,1.663319,0
1752550931.0102878,1.278911,1.672987,0
1752550931.0102878,1.281327,1.679432,0
1752550931.0112853,1.338531,1.679432,0
1752550931.0112853,1.378814,1.683461,0
1752550931.0112853,1.415875,1.685878,0
1752550931.0112853,1.451376,1.685878,0
1752550931.0112853,1.482797,1.685878,0
1752550931.0122826,1.522275,1.684266,0
1752550931.0122826,1.541611,1.681849,0
1752550931.0122826,1.55853,1.67621,0
1752550931.0122826,1.567393,1.668959,0
1752550931.0132797,1.588341,1.657679,0
1752550931.0132797,1.60526,1.644738,0
1752550931.0222569,1.596397,1.636681,0
1752550931.024251,1.567393,1.633458,0
1752550931.0272422,1.516635,1.631847,0
1752550931.0352218,1.461849,1.634264,0
1752550931.0431998,1.393317,1.651234,0
1752550931.0441978,1.341753,1.663319,0
1752550931.047189,1.304692,1.673793,0
1752550931.0491836,1.276493,1.687489,0
1752550931.0511787,1.286967,1.690712,0
1752550931.0511787,1.342559,1.696352,0
1752550931.0511787,1.378009,1.697963,0
1752550931.0521755,1.418293,1.697157,0
1752550931.0521755,1.452987,1.697157,0
1752550931.0521755,1.484408,1.692323,0
1752550931.0531726,1.519858,1.685072,0
1752550931.0531726,1.541611,1.682655,0
1752550931.0531726,1.55853,1.677015,0
1752550931.05417,1.560142,1.67057,0
1752550931.05417,1.581895,1.660096,0
1752550931.05417,1.606871,1.647961,0
1752550931.0551672,1.59398,1.636681,0
1752550931.0551672,1.567393,1.631041,0
1752550931.0561657,1.512607,1.627013,0
1752550931.0561657,1.457015,1.631041,0
1752550931.0561657,1.38526,1.639098,0
1752550931.0661385,1.340948,1.652039,0
1752550931.0691314,1.304692,1.666541,0
1752550931.0761385,1.281327,1.679432,0
1752550931.0781386,1.292607,1.686683,0
1752550931.0861182,1.339336,1.692323,0
1752550931.0871167,1.381231,1.693935,0
1752550931.0891092,1.41507,1.693935,0
1752550931.092069,1.452987,1.695546,0
1752550931.0940642,1.48602,1.695546,0
1752550931.0940642,1.524692,1.696352,0
1752550931.0940642,1.547251,1.690712,0
1752550931.0940642,1.562559,1.682655,0
1752550931.0950613,1.569004,1.678627,0
1752550931.0950613,1.589952,1.672987,0
1752550931.0950613,1.610899,1.658485,0
1752550931.0950613,1.595592,1.645544,0
1752550931.0950613,1.565782,1.637487,0
1752550931.0960586,1.515024,1.637487,0
1752550931.0960586,1.460238,1.638293,0
1752550931.0960586,1.388482,1.641515,0
1752550931.0960586,1.340948,1.650428,0
1752550931.097056,1.303886,1.66493,0
1752550931.097056,1.278911,1.679432,0
1752550931.097056,1.292607,1.684266,0
1752550931.106032,1.345782,1.683461,0
1752550931.1090236,1.382843,1.684266,0
1752550931.1110184,1.422321,1.685878,0
1752550931.1189976,1.452987,1.686683,0
1752550931.1259785,1.485214,1.680238,0
1752550931.1279733,1.518247,1.680238,0
1752550931.1309645,1.53436,1.683461,0
1752550931.1329596,1.553697,1.682655,0
1752550931.134955,1.566587,1.673793,0
1752550931.1359525,1.592369,1.660902,0
1752550931.1359525,1.608482,1.651234,0
1752550931.1359525,1.59962,1.642321,0
1752550931.1359525,1.568199,1.633458,0
1752550931.1369493,1.508579,1.63507,0
1752550931.1369493,1.455404,1.635875,0
1752550931.1369493,1.382843,1.644738,0
1752550931.1369493,1.334502,1.654456,0
1752550931.1369493,1.303081,1.660902,0
1752550931.1379457,1.276493,1.674598,0
1752550931.1379457,1.289384,1.682655,0
1752550931.1379457,1.338531,1.690712,0
1752550931.1379457,1.386065,1.689906,0
1752550931.138944,1.426349,1.685878,0
1752550931.138944,1.457821,1.6891,0
1752550931.138944,1.48602,1.687489,0
1752550931.1489172,1.530332,1.682655,0
1752550931.1509113,1.538389,1.677821,0
1752550931.1529062,1.550474,1.67621,0
1752550931.160885,1.55853,1.669764,0
1752550931.168864,1.592369,1.660902,0
1752550931.169861,1.611705,1.647961,0
1752550931.1728532,1.596397,1.640709,0
1752550931.175845,1.564976,1.638293,0
1752550931.1768422,1.510996,1.637487,0
1752550931.1768422,1.455404,1.639098,0
1752550931.1778405,1.386871,1.646349,0
1752550931.1778405,1.34417,1.650428,0
1752550931.1778405,1.302275,1.65929,0
1752550931.1778405,1.276493,1.669764,0
1752550931.1788373,1.292607,1.677015,0
1752550931.1788373,1.34417,1.678627,0
1752550931.1788373,1.383648,1.681044,0
1752550931.1788373,1.419904,1.685878,0
1752550931.1788373,1.45621,1.690712,0
1752550931.1798346,1.490048,1.686683,0
1752550931.1798346,1.530332,1.685072,0
1752550931.1798346,1.544834,1.679432,0
1752550931.1798346,1.557725,1.673793,0
1752550931.1808317,1.569004,1.666541,0
1752550931.1808317,1.587535,1.658485,0
1752550931.1808317,1.608482,1.650428,0
1752550931.1918023,1.600426,1.638293,0
1752550931.1937964,1.562559,1.63507,0
1752550931.2017753,1.505356,1.63507,0
1752550931.2047677,1.446542,1.639098,0
1752550931.211749,1.377203,1.645544,0
1752550931.2137427,1.336919,1.652845,0
1752550931.2167375,1.300664,1.663319,0
1752550931.2197275,1.277299,1.671376,0
1752550931.2197275,1.301469,1.677015,0
1752550931.2197275,1.350616,1.680238,0
1752550931.2197275,1.389288,1.682655,0
1752550931.2207246,1.427155,1.681849,0
1752550931.2207246,1.458627,1.683461,0
1752550931.2207246,1.490048,1.680238,0
1752550931.2207246,1.522275,1.679432,0
1752550931.2217216,1.537583,1.682655,0
1752550931.2217216,1.552085,1.6891,0
1752550931.2217216,1.561753,1.685878,0
1752550931.2217216,1.597203,1.671376,0
1752550931.2217216,1.613317,1.650428,0
1752550931.2227187,1.540806,1.633458,0
1752550931.2227187,1.481186,1.634264,0
1752550931.2227187,1.40943,1.640709,0
1752550931.2316954,1.345782,1.651234,0
1752550931.2346885,1.309526,1.660096,0
1752550931.2366824,1.277299,1.672987,0
1752550931.243664,1.26038,1.685072,0
1752550931.2466555,1.318389,1.684266,0
1752550931.2536373,1.361895,1.682655,0
1752550931.256629,1.400568,1.681044,0
1752550931.2586236,1.43924,1.685878,0
1752550931.2616148,1.469906,1.6891,0
1752550931.2616148,1.51019,1.683461,0
1752550931.2616148,1.531943,1.682655,0
1752550931.2616148,1.550474,1.679432,0
1752550931.2616148,1.570616,1.674598,0
1752550931.2626133,1.589952,1.665736,0
1752550931.2626133,1.618151,1.65929,0
1752550931.2626133,1.624596,1.643932,0
1752550931.2626133,1.593175,1.637487,0
1752550931.2636106,1.540806,1.630236,0
1752550931.2636106,1.477963,1.632653,0
1752550931.2636106,1.407013,1.639904,0
1752550931.2636106,1.344976,1.652845,0
1752550931.2636106,1.310332,1.660902,0
1752550931.264608,1.276493,1.669764,0
1752550931.264608,1.26038,1.681044,0
1752550931.2656045,1.312749,1.681849,0
1752550931.274581,1.35545,1.680238,0
1752550931.2765758,1.399762,1.677821,0
1752550931.2795677,1.436017,1.679432,0
1752550931.2875464,1.466683,1.687489,0
1752550931.2915356,1.51019,1.683461,0
1752550931.2965217,1.543223,1.682655,0
1752550931.2985163,1.559336,1.680238,0
1752550931.3015094,1.573033,1.673793,0
1752550931.3045013,1.597203,1.663319,0
1752550931.3045013,1.618956,1.654456,0
1752550931.3045013,1.619762,1.646349,0
1752550931.3054981,1.585924,1.642321,0
1752550931.3054981,1.538389,1.640709,0
1752550931.3054981,1.481186,1.640709,0
1752550931.3054981,1.414264,1.646349,0
1752550931.3054981,1.349004,1.655262,0
1752550931.3064952,1.308721,1.660096,0
1752550931.3064952,1.272465,1.66493,0
1752550931.3064952,1.261991,1.671376,0
1752550931.3064952,1.311943,1.672987,0
1752550931.3074932,1.358672,1.677821,0
1752550931.3074932,1.398151,1.682655,0
1752550931.3074932,1.435212,1.687489,0
1752550931.3074932,1.472323,1.692323,0
1752550931.3084908,1.51019,1.691518,0
1752550931.3164694,1.542417,1.685878,0
1752550931.321455,1.560142,1.679432,0
1752550931.3224535,1.574644,1.672181,0
1752550931.3304315,1.594786,1.664124,0
1752550931.3324258,1.617345,1.657679,0
1752550931.3404047,1.621373,1.652039,0
1752550931.3414025,1.589146,1.647961,0
1752550931.344394,1.539194,1.645544,0
1752550931.3473861,1.478769,1.647155,0
1752550931.3483834,1.412653,1.650428,0
1752550931.3483834,1.345782,1.657679,0
1752550931.3483834,1.310332,1.665736,0
1752550931.3483834,1.278911,1.67057,0
1752550931.3493812,1.270048,1.67621,0
1752550931.3493812,1.317583,1.678627,0
1752550931.3493812,1.358672,1.684266,0
1752550931.3493812,1.554502,1.672987,0
1752550931.3503776,1.571421,1.669764,0
1752550931.3503776,1.589952,1.661707,0
1752550931.3503776,1.622179,1.651234,0
1752550931.3503776,1.612511,1.645544,0
1752550931.351375,1.577061,1.647155,0
1752550931.3523738,1.532749,1.647155,0
1752550931.3523738,1.473935,1.651234,0
1752550931.3523738,1.406207,1.653651,0
1752550931.3523738,1.351421,1.658485,0
1752550931.3533707,1.310332,1.668153,0
1752550931.3623784,1.276493,1.675404,0
1752550931.3643742,1.274076,1.682655,0
1752550931.3663354,1.32564,1.685878,0
1752550931.3743145,1.365118,1.689906,0
1752550931.376309,1.398956,1.689906,0
1752550931.3842869,1.436017,1.6891,0
1752550931.386282,1.476351,1.682655,0
1752550931.3892741,1.516635,1.677015,0
1752550931.392266,1.542417,1.672987,0
1752550931.392266,1.560948,1.67057,0
1752550931.392266,1.57545,1.664124,0
1752550931.3932638,1.59398,1.660096,0
1752550931.3932638,1.615734,1.655262,0
1752550931.3932638,1.618151,1.651234,0
1752550931.3932638,1.585924,1.646349,0
1752550931.3932638,1.535166,1.638293,0
1752550931.394262,1.477157,1.63507,0
1752550931.394262,1.408624,1.635875,0
1752550931.394262,1.342559,1.638293,0
1752550931.394262,1.300664,1.650428,0
1752550931.3952584,1.268437,1.67057,0
1752550931.3952584,1.262797,1.680238,0
1752550931.3952584,1.317583,1.682655,0
1752550931.3952584,1.363507,1.678627,0
1752550931.3962882,1.402985,1.684266,0
1752550931.3962882,1.440046,1.684266,0
1752550931.3962882,1.476351,1.687489,0
1752550931.3972526,1.513413,1.685072,0
1752550931.3972526,1.541611,1.683461,0
1752550931.3972526,1.562559,1.67621,0
1752550931.4092212,1.571421,1.672181,0
1752550931.411216,1.593175,1.663319,0
1752550931.418197,1.620568,1.655262,0
1752550931.4211886,1.615734,1.648766,0
1752550931.4291673,1.592369,1.647155,0
1752550931.4291673,1.535166,1.650428,0
1752550931.4331565,1.477963,1.653651,0
1752550931.435151,1.410236,1.648766,0
1752550931.437147,1.345782,1.654456,0
1752550931.437147,1.303081,1.660096,0
1752550931.437147,1.264408,1.667347,0
1752550931.437147,1.264408,1.672181,0
1752550931.437147,1.32,1.674598,0
1752550931.4381435,1.349004,1.686683,0
1752550931.4381435,1.388482,1.689906,0
1752550931.4381435,1.431183,1.686683,0
1752550931.4381435,1.47474,1.678627,0
1752550931.439141,1.521469,1.671376,0
1752550931.439141,1.547251,1.668153,0
1752550931.439141,1.562559,1.66493,0
1752550931.439141,1.574644,1.666541,0
1752550931.439141,1.597203,1.665736,0
1752550931.4401376,1.615734,1.661707,0
1752550931.4401376,1.614928,1.658485,0
1752550931.4401376,1.585924,1.658485,0
1752550931.441136,1.531943,1.650428,0
1752550931.451109,1.477963,1.646349,0
1752550931.4531035,1.402179,1.652039,0
1752550931.4600844,1.340948,1.656873,0
1752550931.4630768,1.298247,1.665736,0
1752550931.470085,1.270854,1.674598,0
1752550931.4730756,1.265214,1.683461,0
1752550931.4750438,1.319194,1.683461,0
1752550931.478036,1.367535,1.682655,0
1752550931.4790342,1.411847,1.681044,0
1752550931.4790342,1.45057,1.678627,0
1752550931.4790342,1.478769,1.678627,0
1752550931.4790342,1.516635,1.677015,0
1752550931.4790342,1.54564,1.677015,0
1752550931.4800305,1.561753,1.672987,0
1752550931.4800305,1.56981,1.673793,0
1752550931.4800305,1.593175,1.669764,0
1752550931.4800305,1.621373,1.663319,0
1752550931.4810278,1.619762,1.655262,0
1752550931.4810278,1.585118,1.647961,0
1752550931.4810278,1.530332,1.643932,0
1752550931.4810278,1.472323,1.640709,0
1752550931.4820266,1.397345,1.644738,0
1752550931.4820266,1.336919,1.651234,0
1752550931.4820266,1.298247,1.656873,0
1752550931.492,1.270854,1.667347,0
1752550931.4949915,1.270048,1.672987,0
1752550931.5019724,1.322417,1.67621,0
1752550931.5049648,1.369146,1.681044,0
1752550931.5119781,1.404596,1.685072,0
1752550931.512943,1.44493,1.680238,0
1752550931.5159357,1.48038,1.677821,0
1752550931.5179298,1.518247,1.67621,0
1752550931.5199246,1.548057,1.672181,0
1752550931.5199246,1.559336,1.669764,0
1752550931.5209222,1.564976,1.674598,0
1752550931.5209222,1.593175,1.669764,0
1752550931.5209222,1.618956,1.664124,0
1752550931.521919,1.616539,1.655262,0
1752550931.521919,1.587535,1.647155,0
1752550931.521919,1.530332,1.646349,0
1752550931.521919,1.470712,1.644738,0
1752550931.521919,1.396539,1.644738,0
1752550931.522917,1.338531,1.651234,0
1752550931.522917,1.295024,1.657679,0
1752550931.522917,1.268437,1.665736,0
1752550931.5239148,1.266825,1.668153,0
1752550931.5239148,1.321611,1.671376,0
1752550931.5239148,1.364312,1.680238,0
1752550931.5348852,1.405402,1.6891,0
1752550931.5368795,1.443269,1.686683,0
1752550931.5448587,1.477963,1.685878,0
1752550931.5498464,1.511801,1.685878,0
1752550931.5538347,1.548057,1.681849,0
1752550931.5558293,1.566587,1.67057,0
1752550931.5588212,1.574644,1.669764,0
1752550931.5618117,1.59962,1.660096,0
1752550931.5618117,1.627013,1.652039,0
1752550931.5618117,1.615734,1.651234,0
1752550931.5628102,1.582701,1.652845,0
1752550931.5628102,1.526303,1.652845,0
1752550931.5628102,1.467489,1.652039,0
1752550931.5628102,1.389288,1.652039,0
1752550931.563808,1.332891,1.655262,0
1752550931.563808,1.297441,1.660902,0
1752550931.563808,1.271659,1.666541,0
1752550931.563808,1.276493,1.669764,0
1752550931.563808,1.329668,1.672987,0
1752550931.5648048,1.369146,1.67621,0
1752550931.5648048,1.410236,1.682655,0
1752550931.5648048,1.444124,1.684266,0
1752550931.565803,1.477157,1.685878,0
1752550931.565803,1.516635,1.682655,0
1752550931.5667996,1.543223,1.680238,0
1752550931.5667996,1.561753,1.674598,0
1752550931.576773,1.570616,1.668153,0
1752550931.5797641,1.593175,1.662513,0
1752550931.5867465,1.620568,1.655262,0
1752550931.5897386,1.612511,1.651234,0
1752550931.596719,1.579478,1.642321,0
1752550931.597717,1.525498,1.643932,0
1752550931.6007087,1.467489,1.646349,0
1752550931.6037002,1.394928,1.653651,0
1752550931.6046987,1.311138,1.65929,0
1752550931.6046987,1.266825,1.677821,0
1752550931.6046987,1.271659,1.685072,0
1752550931.6056955,1.331279,1.691518,0
1752550931.6056955,1.375592,1.693129,0
1752550931.6056955,1.414264,1.693935,0
1752550931.6056955,1.452181,1.693129,0
1752550931.6056955,1.482797,1.689906,0
1752550931.606692,1.519052,1.680238,0
1752550931.606692,1.541611,1.672987,0
1752550931.606692,1.556113,1.672987,0
1752550931.606692,1.567393,1.67621,0
1752550931.606692,1.594786,1.669764,0
1752550931.60769,1.620568,1.661707,0
1752550931.60769,1.615734,1.652039,0
1752550931.6086867,1.583507,1.646349,0
1752550931.6086867,1.525498,1.644738,0
1752550931.6086867,1.468295,1.641515,0
1752550931.6086867,1.392511,1.650428,0
1752550931.6086867,1.336113,1.657679,0
1752550931.6096838,1.290996,1.67057,0
1752550931.619658,1.266825,1.678627,0
1752550931.6216867,1.277299,1.681044,0
1752550931.6236467,1.329668,1.680238,0
1752550931.629666,1.369952,1.682655,0
1752550931.6316261,1.401373,1.683461,0
1752550931.6396046,1.440851,1.682655,0
1752550931.641599,1.482797,1.683461,0
1752550931.643594,1.525498,1.679432,0
1752550931.6465857,1.548862,1.678627,0
1752550931.647583,1.567393,1.674598,0
1752550931.647583,1.574644,1.668959,0
1752550931.647583,1.598009,1.65929,0
1752550931.647583,1.621373,1.646349,0
1752550931.6485803,1.611705,1.641515,0
1752550931.6485803,1.578672,1.635875,0
1752550931.6485803,1.523081,1.639904,0
1752550931.6485803,1.462655,1.645544,0
1752550931.6495788,1.382843,1.656873,0
1752550931.6495788,1.329668,1.664124,0
1752550931.6495788,1.297441,1.672181,0
1752550931.6495788,1.265214,1.686683,0
1752550931.6495788,1.274076,1.691518,0
1752550931.650575,1.332891,1.693129,0
1752550931.650575,1.370758,1.695546,0
1752550931.651572,1.410236,1.697157,0
1752550931.651572,1.448958,1.695546,0
1752550931.651572,1.486825,1.691518,0
1752550931.651572,1.523886,1.689906,0
1752550931.661546,1.550474,1.683461,0
1752550931.6635404,1.567393,1.679432,0
1752550931.670522,1.577061,1.680238,0
1752550931.673514,1.598814,1.673793,0
1752550931.6814923,1.622179,1.663319,0
1752550931.6824908,1.613317,1.660096,0
1752550931.6854813,1.577061,1.654456,0
1752550931.688473,1.511801,1.646349,0
1752550931.6894712,1.457821,1.641515,0
1752550931.6894712,1.381231,1.647155,0
1752550931.6894712,1.332085,1.658485,0
1752550931.6894712,1.294218,1.664124,0
1752550931.6904676,1.264408,1.662513,0
1752550931.6904676,1.278105,1.66493,0
1752550931.6904676,1.332891,1.667347,0
1752550931.6904676,1.374786,1.674598,0
1752550931.6904676,1.411847,1.677015,0
1752550931.691465,1.44493,1.677821,0
1752550931.691465,1.482797,1.67621,0
1752550931.691465,1.523081,1.672987,0
1752550931.691465,1.548862,1.672181,0
1752550931.692462,1.561753,1.672987,0
1752550931.692462,1.576255,1.665736,0
1752550931.692462,1.60526,1.660096,0
1752550931.6934597,1.618151,1.654456,0
1752550931.6934597,1.606871,1.650428,0
1752550931.6934597,1.577061,1.639098,0
1752550931.7024362,1.518247,1.639904,0
1752550931.704431,1.459432,1.643932,0
1752550931.7074234,1.383648,1.656873,0
1752550931.7144043,1.335308,1.660902,0
1752550931.7163985,1.292607,1.674598,0
1752550931.7233803,1.266825,1.681849,0
1752550931.7253754,1.277299,1.684266,0
1752550931.728367,1.335308,1.686683,0
1752550931.7313588,1.374786,1.690712,0
1752550931.7313588,1.412653,1.691518,0
1752550931.7313588,1.452181,1.691518,0
1752550931.7323573,1.489242,1.688295,0
1752550931.7323573,1.527915,1.684266,0
1752550931.7323573,1.544834,1.678627,0
1752550931.7323573,1.562559,1.673793,0
1752550931.7323573,1.566587,1.661707,0
1752550931.733353,1.594786,1.657679,0
1752550931.733353,1.615734,1.652845,0
1752550931.733353,1.613317,1.646349,0
1752550931.733353,1.584312,1.636681,0
1752550931.7343514,1.521469,1.633458,0
1752550931.7343514,1.454598,1.639904,0
1752550931.7343514,1.378009,1.650428,0
1752550931.735349,1.328862,1.655262,0
1752550931.735349,1.291801,1.668153,0
1752550931.735349,1.264408,1.678627,0
1752550931.735349,1.285356,1.678627,0
1752550931.736345,1.341753,1.680238,0
1752550931.7453215,1.37398,1.687489,0
1752550931.7473161,1.408624,1.686683,0
1752550931.7513058,1.44493,1.691518,0
1752550931.7572896,1.477963,1.692323,0
1752550931.7632737,1.522275,1.684266,0
1752550931.7652686,1.552085,1.672987,0
1752550931.7692573,1.56981,1.661707,0
1752550931.7712524,1.570616,1.65929,0
1752550931.7732463,1.601231,1.652039,0
1752550931.7732463,1.621373,1.647155,0
1752550931.7732463,1.60526,1.639098,0
1752550931.774245,1.572227,1.634264,0
1752550931.774245,1.512607,1.635875,0
1752550931.774245,1.453793,1.643932,0
1752550931.774245,1.381231,1.657679,0
1752550931.774245,1.332085,1.660902,0
1752550931.775242,1.292607,1.666541,0
1752550931.775242,1.266825,1.673793,0
1752550931.775242,1.286162,1.673793,0
1752550931.775242,1.336113,1.679432,0
1752550931.775242,1.370758,1.688295,0
1752550931.7762394,1.414264,1.690712,0
1752550931.7762394,1.451376,1.685878,0
1752550931.7762394,1.484408,1.682655,0
1752550931.7772367,1.529526,1.681044,0
1752550931.7772367,1.55128,1.673793,0
1752550931.7862115,1.571421,1.672181,0
1752550931.7892034,1.578672,1.671376,0
1752550931.796186,1.608482,1.660096,0
1752550931.7981803,1.627013,1.650428,0
1752550931.8061585,1.611705,1.641515,0
1752550931.8081539,1.577867,1.640709,0
1752550931.8101473,1.512607,1.637487,0
1752550931.812143,1.451376,1.639904,0
1752550931.814138,1.369952,1.643932,0
1752550931.814138,1.327251,1.652039,0
1752550931.8151343,1.290996,1.65929,0
1752550931.8151343,1.266825,1.669764,0
1752550931.8151343,1.28455,1.674598,0
1752550931.8151343,1.335308,1.674598,0
1752550931.8161325,1.373175,1.677821,0
1752550931.8161325,1.411847,1.680238,0
1752550931.8161325,1.453793,1.681044,0
1752550931.8161325,1.48602,1.681044,0
1752550931.8161325,1.527915,1.677015,0
1752550931.817129,1.552085,1.677015,0
1752550931.817129,1.571421,1.679432,0
1752550931.817129,1.577867,1.677821,0
1752550931.817129,1.602037,1.669764,0
1752550931.818126,1.622179,1.661707,0
1752550931.818126,1.611705,1.654456,0
1752550931.818126,1.568199,1.646349,0
1752550931.8281002,1.508579,1.647155,0
1752550931.8310933,1.452987,1.647961,0
1752550931.838074,1.374786,1.654456,0
1752550931.8410654,1.326445,1.652039,0
1752550931.8480465,1.279716,1.658485,0
1752550931.850042,1.257963,1.667347,0
1752550931.8520362,1.28455,1.669764,0
1752550931.855028,1.332891,1.672987,0
1752550931.856025,1.378009,1.677821,0
1752550931.8570235,1.418293,1.679432,0
1752550931.8570235,1.453793,1.685878,0
1752550931.8570235,1.485214,1.682655,0
1752550931.8570235,1.52872,1.681044,0
1752550931.8580194,1.556919,1.678627,0
1752550931.8580194,1.573033,1.671376,0
1752550931.8580194,1.580284,1.667347,0
1752550931.8580194,1.608482,1.660902,0
1752550931.8580194,1.622985,1.657679,0
1752550931.859018,1.602037,1.652845,0
1752550931.859018,1.570616,1.647961,0
1752550931.859018,1.51019,1.645544,0
1752550931.859018,1.452987,1.644738,0
1752550931.860014,1.376397,1.641515,0
1752550931.860014,1.321611,1.652845,0
1752550931.860014,1.278105,1.66493,0
1752550931.8699882,1.253935,1.671376,0
1752550931.871982,1.280522,1.671376,0
1752550931.8739784,1.331279,1.67621,0
1752550931.8809588,1.376397,1.685072,0
1752550931.8839514,1.421515,1.686683,0
1752550931.8909323,1.457821,1.686683,0
1752550931.8929272,1.493271,1.683461,0
1752550931.8949218,1.532749,1.685878,0
1752550931.8979137,1.554502,1.684266,0
1752550931.8989112,1.571421,1.683461,0
1752550931.8989112,1.581089,1.677821,0
1752550931.8989112,1.602843,1.666541,0
1752550931.8999076,1.618956,1.660096,0
1752550931.8999076,1.602037,1.654456,0
1752550931.8999076,1.570616,1.643932,0
1752550931.8999076,1.508579,1.643932,0
1752550931.8999076,1.452181,1.645544,0
1752550931.9009056,1.37398,1.650428,0
1752550931.9009056,1.326445,1.656873,0
1752550931.9009056,1.286162,1.660902,0
1752550931.9009056,1.259574,1.67057,0
1752550931.9009056,1.289384,1.674598,0
1752550931.9019027,1.336919,1.680238,0
1752550931.9019027,1.37398,1.682655,0
1752550931.9019027,1.419098,1.684266,0
1752550931.9118762,1.459432,1.685878,0
1752550931.9148686,1.492465,1.682655,0
1752550931.918857,1.531943,1.680238,0
1752550931.923844,1.548862,1.677821,0
1752550931.9308257,1.569004,1.67621,0
1752550931.9338174,1.576255,1.672181,0
1752550931.9368093,1.607677,1.663319,0
1752550931.9398022,1.622985,1.653651,0
1752550931.940798,1.606066,1.646349,0
1752550931.940798,1.568199,1.641515,0
1752550931.940798,1.507773,1.639904,0
1752550931.940798,1.445736,1.643932,0
1752550931.9417963,1.367535,1.642321,0
1752550931.9417963,1.321611,1.647155,0
1752550931.9417963,1.28455,1.655262,0
1752550931.9417963,1.257963,1.664124,0
1752550931.9427938,1.288579,1.672181,0
1752550931.9427938,1.340948,1.682655,0
1752550931.9427938,1.377203,1.686683,0
1752550931.9427938,1.419098,1.685072,0
1752550931.9427938,1.457821,1.683461,0
1752550931.9437902,1.495688,1.679432,0
1752550931.9437902,1.531138,1.678627,0
1752550931.9447882,1.555308,1.67621,0
1752550931.9447882,1.570616,1.672181,0
1752550931.9447882,1.581089,1.671376,0
1752550931.9557588,1.606066,1.665736,0
1752550931.9577544,1.621373,1.654456,0
1752550931.9657326,1.603648,1.645544,0
1752550931.9687233,1.563365,1.639904,0
1752550931.9757056,1.498911,1.637487,0
1752550931.9777,1.437629,1.637487,0
1752550931.980692,1.365118,1.640709,0
1752550931.9836843,1.32564,1.647961,0
1752550931.9836843,1.285356,1.66493,0
1752550931.9836843,1.26038,1.677821,0
1752550931.9836843,1.292607,1.678627,0
1752550931.9846826,1.340948,1.681849,0
1752550931.9846826,1.382037,1.6891,0
1752550931.9846826,1.424738,1.693935,0
1752550931.9846826,1.458627,1.693935,0
1752550931.9856787,1.493271,1.695546,0
1752550931.9856787,1.53436,1.695546,0
1752550931.9856787,1.556919,1.689906,0
1752550931.9856787,1.567393,1.680238,0
1752550931.9856787,1.577867,1.672181,0
1752550931.9866757,1.607677,1.663319,0
1752550931.9866757,1.624596,1.655262,0
1752550931.9866757,1.602037,1.647961,0
1752550931.9866757,1.533555,1.635875,0
1752550931.9876726,1.438434,1.635875,0
1752550931.9876726,1.358672,1.642321,0
1752550931.9876726,1.319194,1.652039,0
1752550931.9876726,1.278911,1.657679,0
1752550931.9876726,1.259574,1.66493,0
1752550931.9886713,1.29019,1.67057,0
1752550931.9886713,1.339336,1.677015,0
1752550931.9886713,1.381231,1.681044,0
1752550931.9886713,1.425544,1.6891,0
1752550931.9896681,1.461044,1.692323,0
1752550931.9896681,1.502133,1.6891,0
1752550931.9896681,1.539194,1.685878,0
1752550931.9896681,1.561753,1.684266,0
1752550931.990666,1.56981,1.679432,0
1752550931.990666,1.579478,1.677015,0
1752550931.990666,1.609288,1.66493,0
1752550931.990666,1.624596,1.654456,0
1752550931.9916635,1.598814,1.650428,0
1752550931.9916635,1.556919,1.642321,0
1752550931.9916635,1.502133,1.640709,0
1752550931.99266,1.438434,1.644738,0
1752550931.99266,1.358672,1.650428,0
1752550931.9936576,1.313555,1.65929,0
1752550931.9936576,1.278911,1.663319,0
1752550931.9936576,1.261991,1.672181,0
1752550931.9936576,1.299052,1.677015,0
1752550931.9946542,1.347393,1.684266,0
1752550931.9946542,1.389288,1.685878,0
1752550931.9946542,1.425544,1.680238,0
1752550931.9946542,1.460238,1.677821,0
1752550931.995651,1.494882,1.678627,0
1752550931.995651,1.535166,1.677821,0
1752550931.995651,1.560142,1.675404,0
1752550931.995651,1.574644,1.667347,0
1752550931.995651,1.584312,1.65929,0
1752550931.9966488,1.606066,1.658485,0
1752550931.9966488,1.618151,1.652039,0
1752550931.9966488,1.597203,1.653651,0
1752550931.9966488,1.55853,1.652039,0
1752550931.9976475,1.496493,1.651234,0
1752550931.9976475,1.437629,1.652039,0
1752550931.9976475,1.357061,1.655262,0
1752550931.9976475,1.319194,1.660902,0
1752550931.9976475,1.282939,1.67057,0
1752550931.9986446,1.261991,1.67621,0
1752550931.9986446,1.303886,1.675404,0
1752550931.9986446,1.349004,1.677015,0
1752550931.9986446,1.386871,1.681044,0
1752550931.999641,1.427155,1.689906,0
1752550931.999641,1.459432,1.689906,0
1752550931.999641,1.501328,1.684266,0
1752550931.999641,1.535972,1.678627,0
1752550932.0006387,1.298247,1.660096,0
1752550932.0006387,1.274076,1.67057,0
1752550932.0006387,1.279716,1.677015,0
1752550932.0006387,1.331279,1.680238,0
1752550932.0016484,1.373175,1.677015,0
1752550932.0016484,1.414264,1.677015,0
1752550932.0016484,1.446542,1.674598,0
1752550932.0016484,1.473129,1.678627,0
1752550932.0026352,1.516635,1.678627,0
1752550932.0026352,1.544028,1.678627,0
1752550932.0026352,1.562559,1.672987,0
1752550932.0026352,1.573838,1.666541,0
1752550932.0036328,1.589952,1.65929,0
1752550932.0036328,1.611705,1.647961,0
1752550932.0036328,1.603648,1.645544,0
1752550932.0036328,1.573838,1.639904,0
1752550932.00463,1.519858,1.640709,0
1752550932.00463,1.461849,1.640709,0
1752550932.00463,1.393317,1.647961,0
1752550932.00463,1.340948,1.653651,0
1752550932.00463,1.305498,1.664124,0
1752550932.0056262,1.276493,1.673793,0
1752550932.0056262,1.277299,1.678627,0
1752550932.0056262,1.332891,1.682655,0
1752550932.0056262,1.372369,1.686683,0
1752550932.0066223,1.408624,1.690712,0
1752550932.0066223,1.447347,1.693935,0
1752550932.0066223,1.483603,1.701186,0
1752550932.0066223,1.521469,1.701991,0
1752550932.0076196,1.547251,1.699574,0
1752550932.0076196,1.561753,1.696352,0
1752550932.0076196,1.56981,1.687489,0
1752550932.0076196,1.595592,1.679432,0
1752550932.0076196,1.616539,1.663319,0
1752550932.0086184,1.610899,1.656873,0
1752550932.0086184,1.573838,1.652039,0
1752550932.0086184,1.522275,1.647961,0
1752550932.0086184,1.461849,1.646349,0
1752550932.009614,1.394928,1.653651,0
1752550932.009614,1.340948,1.658485,0
1752550932.009614,1.299858,1.671376,0
1752550932.009614,1.276493,1.680238,0
1752550932.0106125,1.278911,1.689906,0
1752550932.0106125,1.333696,1.685878,0
1752550932.0106125,1.370758,1.684266,0
1752550932.0106125,1.410236,1.683461,0
1752550932.0106125,1.448958,1.679432,0
1752550932.011609,1.482797,1.675404,0
1752550932.011609,1.518247,1.672987,0
1752550932.011609,1.539194,1.672181,0
1752550932.011609,1.560142,1.668153,0
1752550932.0126078,1.56981,1.667347,0
1752550932.0126138,1.589952,1.665736,0
1752550932.0126138,1.608482,1.656873,0
1752550932.0126138,1.598009,1.652845,0
1752550932.0126138,1.56981,1.650428,0
1752550932.0136073,1.523886,1.645544,0
1752550932.0136073,1.467489,1.642321,0
1752550932.0136073,1.394928,1.650428,0
1752550932.0136073,1.344976,1.650428,0
1752550932.0146053,1.304692,1.65929,0
1752550932.0146053,1.277299,1.667347,0
1752550932.0146053,1.280522,1.673793,0
1752550932.0146053,1.336113,1.677821,0
1752550932.0146053,1.369952,1.679432,0
1752550932.0156014,1.419098,1.682655,0
1752550932.0156014,1.455404,1.677821,0
1752550932.0156014,1.490854,1.674598,0
1752550932.0156014,1.521469,1.671376,0
1752550932.0166016,1.536777,1.669764,0
1752550932.0166016,1.548862,1.67057,0
1752550932.0166016,1.561753,1.672987,0
1752550932.0166016,1.587535,1.663319,0
1752550932.017597,1.606871,1.656873,0
1752550932.017597,1.602037,1.657679,0
1752550932.017597,1.574644,1.654456,0
1752550932.017597,1.524692,1.650428,0
1752550932.017597,1.473129,1.646349,0
1752550932.018626,1.399762,1.652845,0
1752550932.018626,1.344976,1.664124,0
1752550932.018626,1.303081,1.67621,0
1752550932.018626,1.273271,1.684266,0
1752550932.0195909,1.282939,1.685878,0
1752550932.0195909,1.332891,1.682655,0
1752550932.0195909,1.374786,1.683461,0
1752550932.0195909,1.415875,1.685878,0
1752550932.0205889,1.448958,1.680238,0
1752550932.0205889,1.481186,1.678627,0
1752550932.0205889,1.523081,1.674598,0
1752550932.0205889,1.549668,1.672987,0
1752550932.0215857,1.566587,1.668153,0
1752550932.0215857,1.573838,1.666541,0
1752550932.0215857,1.595592,1.65929,0
1752550932.0215857,1.606066,1.656873,0
1752550932.0215857,1.59398,1.654456,0
1752550932.022583,1.568199,1.651234,0
1752550932.022583,1.521469,1.643932,0
1752550932.022583,1.458627,1.641515,0
1752550932.022583,1.383648,1.644738,0
1752550932.0235813,1.336919,1.653651,0
1752550932.0235813,1.299858,1.665736,0
1752550932.0235813,1.274882,1.678627,0
1752550932.0235813,1.285356,1.682655,0
1752550932.0235813,1.342559,1.680238,0
1752550932.0245786,1.37962,1.678627,0
1752550932.0245786,1.414264,1.677821,0
1752550932.0245786,1.45057,1.679432,0
1752550932.0245786,1.481991,1.681044,0
1752550932.025575,1.541611,1.671376,0
1752550932.025575,1.561753,1.672181,0
1752550932.025575,1.569004,1.673793,0
1752550932.025575,1.590758,1.667347,0
1752550932.025575,1.610094,1.656068,0
1752550932.0265722,1.60526,1.650428,0
1752550932.0265722,1.56981,1.641515,0
1752550932.0265722,1.513413,1.642321,0
1752550932.0265722,1.459432,1.643932,0
1752550932.02757,1.386871,1.644738,0
1752550932.02757,1.337725,1.646349,0
1752550932.02757,1.29583,1.658485,0
1752550932.02757,1.270854,1.669764,0
1752550932.02757,1.283744,1.681044,0
1752550932.0286014,1.337725,1.685878,0
1752550932.0286014,1.37962,1.686683,0
1752550932.0286014,1.413458,1.687489,0
1752550932.0286014,1.453793,1.687489,0
1752550932.0286014,1.483603,1.680238,0
1752550932.0295982,1.524692,1.679432,0
1752550932.0295982,1.547251,1.682655,0
1752550932.0295982,1.564976,1.67621,0
1752550932.0295982,1.571421,1.671376,0
1752550932.0305624,1.597203,1.661707,0
1752550932.0305624,1.617345,1.652039,0
1752550932.0305624,1.602843,1.645544,0
1752550932.0305624,1.571421,1.639904,0
1752550932.0305624,1.515024,1.637487,0
1752550932.0315936,1.459432,1.638293,0
1752550932.0315936,1.387677,1.647961,0
1752550932.0315936,1.342559,1.65929,0
1752550932.0315936,1.305498,1.663319,0
1752550932.0325568,1.270854,1.668153,0
1752550932.0325568,1.278105,1.671376,0
1752550932.0325568,1.330474,1.673793,0
1752550932.0325568,1.365118,1.67621,0
1752550932.0325568,1.407013,1.67621,0
1752550932.0335536,1.442463,1.678627,0
1752550932.0335536,1.482797,1.680238,0
1752550932.0335536,1.527915,1.677821,0
1752550932.0335536,1.547251,1.672987,0
1752550932.0345514,1.563365,1.671376,0
1752550932.0345514,1.571421,1.677821,0
1752550932.0345514,1.598009,1.668959,0
1752550932.0345514,1.616539,1.658485,0
1752550932.0345514,1.606871,1.657679,0
1752550932.0355484,1.572227,1.654456,0
1752550932.0355484,1.51583,1.652039,0
1752550932.0355484,1.455404,1.652039,0
1752550932.0355484,1.381231,1.655262,0
1752550932.0365753,1.332891,1.65929,0
1752550932.0365753,1.299052,1.665736,0
1752550932.0365753,1.270854,1.672181,0
1752550932.0365753,1.29583,1.674598,0
1752550932.0365753,1.340948,1.673793,0
1752550932.0375426,1.378009,1.67621,0
1752550932.0375426,1.418293,1.682655,0
1752550932.0375426,1.451376,1.686683,0
1752550932.0375426,1.483603,1.686683,0
1752550932.0385818,1.522275,1.686683,0
1752550932.0385818,1.544834,1.681044,0
1752550932.0385818,1.56417,1.674598,0
1752550932.0385818,1.561753,1.669764,0
1752550932.0385818,1.588341,1.667347,0
1752550932.0395377,1.608482,1.660902,0
1752550932.0395377,1.59962,1.653651,0
1752550932.0395377,1.569004,1.643932,0
1752550932.0395377,1.511801,1.644738,0
1752550932.040535,1.457015,1.639904,0
1752550932.040535,1.382843,1.643126,0
1752550932.040535,1.337725,1.652039,0
1752550932.040535,1.292607,1.66493,0
1752550932.040535,1.267631,1.677015,0
1752550932.0415325,1.29019,1.677821,0
1752550932.0415325,1.343365,1.684266,0
1752550932.0415325,1.380426,1.6891,0
1752550932.0415325,1.419904,1.691518,0
1752550932.0415325,1.457821,1.689906,0
1752550932.042557,1.487631,1.686683,0
1752550932.042557,1.523886,1.686683,0
1752550932.042557,1.549668,1.680238,0
1752550932.042557,1.562559,1.672181,0
1752550932.0435598,1.568199,1.668153,0
1752550932.0435598,1.590758,1.661707,0
1752550932.0435598,1.610094,1.654456,0
1752550932.0435598,1.598814,1.645544,0
1752550932.0435598,1.56981,1.634264,0
1752550932.0445251,1.51019,1.631041,0
1752550932.0445251,1.454598,1.636681,0
1752550932.0445251,1.378009,1.647155,0
1752550932.0445251,1.335308,1.650428,0
1752550932.0445251,1.29583,1.657679,0
1752550932.045554,1.266825,1.673793,0
1752550932.045554,1.286162,1.682655,0
1752550932.045554,1.336919,1.687489,0
1752550932.045554,1.382843,1.684266,0
1752550932.0465193,1.421515,1.685878,0
1752550932.0465193,1.458627,1.681044,0
1752550932.0465193,1.490854,1.679432,0
1752550932.0465193,1.526303,1.679432,0
1752550932.0475163,1.548862,1.677015,0
1752550932.0475163,1.569004,1.67057,0
1752550932.0475163,1.573838,1.666541,0
1752550932.0475163,1.601231,1.660096,0
1752550932.0475163,1.620568,1.647961,0
1752550932.0485137,1.598009,1.638293,0
1752550932.0485137,1.566587,1.632653,0
1752550932.0485137,1.506162,1.632653,0
1752550932.0485137,1.452987,1.634264,0
1752550932.0495114,1.378009,1.640709,0
1752550932.0495114,1.332085,1.654456,0
1752550932.0495114,1.291801,1.665736,0
1752550932.0495114,1.267631,1.677015,0
1752550932.0495114,1.293413,1.683461,0
1752550932.0505083,1.347393,1.684266,0
1752550932.0505083,1.382843,1.686683,0
1752550932.0505083,1.419098,1.6891,0
1752550932.0505083,1.457821,1.6891,0
1752550932.0505083,1.487631,1.686683,0
1752550932.0515053,1.523886,1.684266,0
1752550932.0515053,1.541611,1.680238,0
1752550932.0515053,1.564976,1.671376,0
1752550932.0515053,1.57545,1.666541,0
1752550932.0525026,1.596397,1.656873,0
1752550932.0525026,1.611705,1.647961,0
1752550932.0525026,1.594786,1.643932,0
1752550932.0624764,1.566587,1.637487,0
1752550932.0644712,1.510996,1.62943,0
1752550932.0694578,1.457015,1.62943,0
1752550932.0744452,1.374786,1.639904,0
1752550932.0764391,1.332085,1.650428,0
1752550932.0844185,1.290996,1.661707,0
1752550932.0854146,1.257157,1.683461,0
1752550932.0874097,1.287773,1.695546,0
1752550932.0904021,1.344976,1.697963,0
1752550932.0913985,1.386065,1.696352,0
1752550932.0923958,1.429572,1.693129,0
1752550932.0923958,1.462655,1.692323,0
1752550932.0923958,1.491659,1.693129,0
1752550932.0923958,1.526303,1.690712,0
1752550932.0933928,1.542417,1.687489,0
1752550932.0933928,1.55853,1.685878,0
1752550932.0933928,1.56417,1.673793,0
1752550932.0933928,1.597203,1.65929,0
1752550932.0933928,1.619762,1.644738,0
1752550932.0943902,1.601231,1.639098,0
1752550932.0943902,1.567393,1.637487,0
1752550932.0943902,1.509384,1.639098,0
1752550932.0943902,1.451376,1.643932,0
1752550932.0953887,1.37398,1.650428,0
1752550932.0953887,1.331279,1.655262,0
1752550932.0953887,1.287773,1.66493,0
1752550932.0953887,1.26602,1.67621,0
1752550932.107357,1.298247,1.680238,0
1752550932.109351,1.347393,1.679432,0
1752550932.1172981,1.37962,1.685072,0
1752550932.1202898,1.419098,1.689906,0
1752550932.1272707,1.463461,1.6891,0
1752550932.1292648,1.494076,1.684266,0
1752550932.1322577,1.527915,1.677821,0
1752550932.1352499,1.547251,1.679432,0
1752550932.1352499,1.56417,1.672181,0
1752550932.1352499,1.57545,1.65929,0
1752550932.1352499,1.602843,1.645544,0
1752550932.1352499,1.614928,1.637487,0
1752550932.1362472,1.594786,1.633458,0
1752550932.1362472,1.561753,1.632653,0
1752550932.1362472,1.507773,1.635875,0
1752550932.1362472,1.448958,1.639904,0
1752550932.1362472,1.374786,1.650428,0
1752550932.1372442,1.324834,1.661707,0
1752550932.1372442,1.293413,1.669764,0
1752550932.1372442,1.271659,1.67621,0
1752550932.1372442,1.304692,1.673793,0
1752550932.1382415,1.34981,1.67621,0
1752550932.1382415,1.386871,1.679432,0
1752550932.1382415,1.42071,1.681044,0
1752550932.1482153,1.451376,1.686683,0
1752550932.151207,1.490048,1.681044,0
1752550932.158188,1.529526,1.680238,0
1752550932.1611793,1.549668,1.683461,0
1752550932.1691592,1.56417,1.677821,0
1752550932.1701565,1.57545,1.67057,0
1752550932.1731482,1.604454,1.660902,0
1752550932.1751432,1.614928,1.654456,0
1752550932.1776755,1.594786,1.646349,0
1752550932.1776915,1.556919,1.639904,0
1752550932.1776915,1.495688,1.647155,0
1752550932.1781967,1.440046,1.652845,0
1752550932.1781967,1.369952,1.656873,0
1752550932.1781967,1.329668,1.660096,0
1752550932.1781967,1.292607,1.666541,0
1752550932.179193,1.270854,1.679432,0
1752550932.179193,1.299052,1.682655,0
1752550932.179193,1.351421,1.686683,0
1752550932.179193,1.389288,1.685878,0
1752550932.179193,1.426349,1.6891,0
1752550932.1801908,1.457015,1.689906,0
1752550932.1801908,1.491659,1.687489,0
1752550932.1801908,1.52872,1.680238,0
1752550932.1811886,1.549668,1.678627,0
1752550932.1811886,1.564976,1.678627,0
1752550932.1910892,1.573033,1.672181,0
1752550932.1931205,1.601231,1.668959,0
1752550932.195079,1.614122,1.662513,0
1752550932.2030582,1.593175,1.650428,0
1752550932.205052,1.556919,1.639098,0
1752550932.2120333,1.503745,1.632653,0
1752550932.2140286,1.443269,1.633458,0
1752550932.2180176,1.363507,1.646349,0
1752550932.2210095,1.321611,1.65929,0
1752550932.2210095,1.289384,1.668153,0
1752550932.2210095,1.269242,1.678627,0
1752550932.2210095,1.307915,1.677821,0
1752550932.2210095,1.352227,1.682655,0
1752550932.2220068,1.386065,1.681044,0
1752550932.2220068,1.424738,1.679432,0
1752550932.2220068,1.459432,1.679432,0
1752550932.2220068,1.497299,1.677015,0
1752550932.2230039,1.532749,1.673793,0
1752550932.2230039,1.552085,1.67621,0
1752550932.2230039,1.566587,1.679432,0
1752550932.2230039,1.573838,1.674598,0
1752550932.2240024,1.602037,1.663319,0
1752550932.2240024,1.616539,1.657679,0
1752550932.2240024,1.590758,1.651234,0
1752550932.2240024,1.556113,1.640709,0
1752550932.2349722,1.503745,1.63507,0
1752550932.236966,1.445736,1.640709,0
1752550932.2439473,1.36834,1.650428,0
1752550932.24694,1.326445,1.657679,0
1752550932.2549186,1.29019,1.661707,0
1752550932.2569134,1.261186,1.669764,0
1752550932.2599053,1.298247,1.672987,0
1752550932.2628975,1.349004,1.672987,0
1752550932.2628975,1.386871,1.674598,0
1752550932.2628975,1.424738,1.672987,0
1752550932.2628975,1.457015,1.677821,0
1752550932.2638938,1.496493,1.686683,0
1752550932.2638938,1.529526,1.687489,0
1752550932.2638938,1.557725,1.677821,0
1752550932.2638938,1.56981,1.672181,0
1752550932.2638938,1.581089,1.667347,0
1752550932.2648914,1.600426,1.661707,0
1752550932.2648914,1.615734,1.650428,0
1752550932.2648914,1.585924,1.638293,0
1752550932.2648914,1.547251,1.635875,0
1752550932.26589,1.494882,1.634264,0
1752550932.26589,1.443269,1.63507,0
1752550932.26589,1.365118,1.639904,0
1752550932.26589,1.326445,1.646349,0
1752550932.2768598,1.289384,1.655262,0
1752550932.2788546,1.265214,1.669764,0
1752550932.2868338,1.304692,1.67621,0
1752550932.288828,1.352227,1.679432,0
1752550932.2908225,1.416681,1.678627,0
1752550932.2978039,1.461849,1.687489,0
1752550932.3007958,1.498911,1.691518,0
1752550932.3027909,1.531943,1.691518,0
1752550932.304786,1.555308,1.685878,0
1752550932.305782,1.567393,1.681044,0
1752550932.305782,1.577867,1.672987,0
1752550932.305782,1.602037,1.661707,0
1752550932.305782,1.612511,1.654456,0
1752550932.3067803,1.590758,1.645544,0
1752550932.3067803,1.556919,1.641515,0
1752550932.3067803,1.497299,1.641515,0
1752550932.3067803,1.438434,1.645544,0
1752550932.307777,1.360284,1.654456,0
1752550932.307777,1.32564,1.655262,0
1752550932.307777,1.292607,1.663319,0
1752550932.307777,1.276493,1.67057,0
1752550932.307777,1.313555,1.67057,0
1752550932.3087745,1.353838,1.674598,0
1752550932.3087745,1.387677,1.678627,0
1752550932.3087745,1.416681,1.682655,0
1752550932.318473,1.452181,1.683461,0
1752550932.321465,1.490048,1.684266,0
1752550932.3254542,1.527915,1.678627,0
1752550932.3314383,1.549668,1.678627,0
1752550932.3384197,1.567393,1.673793,0
1752550932.3404143,1.581089,1.668153,0
1752550932.3424096,1.608482,1.65929,0
1752550932.3444042,1.620568,1.647961,0
1752550932.3473952,1.59398,1.644738,0
1752550932.3473952,1.556113,1.639904,0
1752550932.3483937,1.497299,1.644738,0
1752550932.3483937,1.438434,1.650428,0
1752550932.3483937,1.363507,1.661707,0
1752550932.3483937,1.32564,1.67057,0
1752550932.3483937,1.290996,1.680238,0
1752550932.3493922,1.276493,1.682655,0
1752550932.3493922,1.312749,1.679432,0
1752550932.3493922,1.357867,1.682655,0
1752550932.3493922,1.393317,1.686683,0
1752550932.350388,1.424738,1.693129,0
1752550932.350388,1.457821,1.697157,0
1752550932.350388,1.498911,1.693129,0
1752550932.3513854,1.530332,1.687489,0
1752550932.3513854,1.548862,1.685878,0
1752550932.3513854,1.569004,1.685878,0
1752550932.3623557,1.581089,1.673793,0
1752550932.3643515,1.600426,1.660902,0
1752550932.3723292,1.606871,1.650428,0
1752550932.3753214,1.587535,1.644738,0
1752550932.3823018,1.549668,1.639904,0
1752550932.3842971,1.490854,1.639904,0
1752550932.3872893,1.437629,1.650428,0
1752550932.3902812,1.366729,1.661707,0
1752550932.3902812,1.324834,1.67057,0
1752550932.3902812,1.287773,1.679432,0
1752550932.3902812,1.268437,1.686683,0
1752550932.3912785,1.308721,1.687489,0
1752550932.3912785,1.351421,1.687489,0
1752550932.3912785,1.392511,1.690712,0
1752550932.3912785,1.431989,1.692323,0
1752550932.3922758,1.465072,1.6891,0
1752550932.3922758,1.502133,1.685072,0
1752550932.3922758,1.530332,1.674598,0
1752550932.3922758,1.554502,1.660902,0
1752550932.3922758,1.563365,1.653651,0
1752550932.3932734,1.581089,1.654456,0
1752550932.3932734,1.606871,1.643932,0
1752550932.3932734,1.615734,1.63507,0
1752550932.3942711,1.585924,1.631041,0
1752550932.4042432,1.547251,1.635875,0
1752550932.406239,1.482797,1.646349,0
1752550932.4132197,1.426349,1.656068,0
1752550932.4161472,1.353838,1.668153,0
1752550932.4241257,1.323223,1.67621,0
1752550932.4261196,1.286967,1.678627,0
1752550932.4281144,1.268437,1.683461,0
1752550932.432104,1.311943,1.679432,0
1752550932.432104,1.353838,1.678627,0
1752550932.432104,1.393317,1.680238,0
1752550932.433102,1.434406,1.681044,0
1752550932.433102,1.4691,1.677821,0
1752550932.433102,1.503745,1.669764,0
1752550932.433102,1.535972,1.666541,0
1752550932.433102,1.557725,1.666541,0
1752550932.4340997,1.56981,1.663319,0
1752550932.4340997,1.577061,1.655262,0
1752550932.4340997,1.60526,1.645544,0
1752550932.4340997,1.614122,1.637487,0
1752550932.4350953,1.581089,1.634264,0
1752550932.4350953,1.544028,1.634264,0
1752550932.4350953,1.489242,1.635875,0
1752550932.4350953,1.431183,1.642321,0
1752550932.4360938,1.356255,1.651234,0
1752550932.4360938,1.311943,1.661707,0
1752550932.4360938,1.279716,1.673793,0
1752550932.4360938,1.270048,1.683461,0
1752550932.4370925,1.319194,1.685072,0
1752550932.4370925,1.361089,1.685878,0
1752550932.4440727,1.396539,1.688295,0
1752550932.4480615,1.4336,1.689906,0
1752550932.451062,1.469906,1.685878,0
1752550932.4580348,1.505356,1.683461,0
1752550932.4610267,1.535166,1.680238,0
1752550932.4700022,1.552085,1.677015,0
1752550932.4710004,1.569004,1.671376,0
1752550932.473992,1.581895,1.663319,0
1752550932.4769843,1.607677,1.650428,0
1752550932.4779804,1.615734,1.639904,0
1752550932.4779804,1.589146,1.635875,0
1752550932.4779804,1.548862,1.635875,0
1752550932.4779804,1.489242,1.639904,0
1752550932.4789777,1.429572,1.651234,0
1752550932.4789777,1.351421,1.660096,0
1752550932.4789777,1.311138,1.669764,0
1752550932.4789777,1.28455,1.677015,0
1752550932.479975,1.274076,1.681044,0
1752550932.479975,1.317583,1.685072,0
1752550932.479975,1.361089,1.686683,0
1752550932.479975,1.401373,1.686683,0
1752550932.479975,1.438434,1.685072,0
1752550932.4809723,1.462655,1.683461,0
1752550932.4809723,1.500522,1.681044,0
1752550932.4809723,1.53436,1.672987,0
1752550932.4919431,1.552085,1.669764,0
1752550932.493939,1.566587,1.661707,0
1752550932.501951,1.579478,1.657679,0
1752550932.503912,1.607677,1.651234,0
1752550932.512888,1.612511,1.647155,0
1752550932.5148826,1.587535,1.652845,0
1752550932.5168765,1.537583,1.650428,0
1752550932.5208664,1.482797,1.647155,0
1752550932.5208664,1.426349,1.644738,0
1752550932.5208664,1.358672,1.644738,0
1752550932.5208664,1.313555,1.656068,0
1752550932.5218637,1.286162,1.666541,0
1752550932.5218637,1.273271,1.674598,0
1752550932.5218637,1.32,1.677821,0
1752550932.5218637,1.358672,1.683461,0
1752550932.522861,1.394122,1.687489,0
1752550932.522861,1.438434,1.685878,0
1752550932.522861,1.459432,1.684266,0
1752550932.522861,1.489242,1.687489,0
1752550932.522861,1.532749,1.681849,0
1752550932.5238578,1.552891,1.674598,0
1752550932.5238578,1.56417,1.668959,0
1752550932.5238578,1.585924,1.661707,0
1752550932.524857,1.609288,1.655262,0
1752550932.5268505,1.612511,1.651234,0
1752550932.5358272,1.587535,1.651234,0
1752550932.5378215,1.54564,1.642321,0
1752550932.5448022,1.486825,1.637487,0
1752550932.5477943,1.42071,1.643932,0
1752550932.555773,1.353838,1.651234,0
1752550932.5567708,1.319194,1.656873,0
1752550932.5597618,1.286967,1.665736,0
1752550932.5627542,1.273271,1.67621,0
1752550932.563752,1.316777,1.681044,0
1752550932.563752,1.357867,1.685878,0
1752550932.563752,1.400568,1.685072,0
1752550932.563752,1.4336,1.687489,0
1752550932.5647492,1.465072,1.690712,0
1752550932.5647492,1.502939,1.691518,0
1752550932.5647492,1.541611,1.6891,0
1752550932.5647492,1.560142,1.682655,0
1752550932.565747,1.571421,1.673793,0
1752550932.565747,1.590758,1.66493,0
1752550932.565747,1.614928,1.652039,0
1752550932.565747,1.615734,1.650428,0
1752550932.5667443,1.583507,1.646349,0
1752550932.5667443,1.543223,1.641515,0
1752550932.5667443,1.48602,1.640709,0
1752550932.5677414,1.418293,1.647961,0
1752550932.5677414,1.348199,1.652039,0
1752550932.5777142,1.311138,1.65929,0
1752550932.5807066,1.278911,1.668153,0
1752550932.5876877,1.263603,1.677821,0
1752550932.5906796,1.321611,1.67621,0
1752550932.5966635,1.363507,1.683461,0
1752550932.5996573,1.401373,1.687489,0
1752550932.603645,1.437629,1.686683,0
1752550932.606637,1.469906,1.684266,0
1752550932.606637,1.506162,1.682655,0
1752550932.6076345,1.536777,1.67621,0
1752550932.6076345,1.56417,1.672987,0
1752550932.6076345,1.606871,1.647155,0
1752550932.6076345,1.606066,1.639098,0
1752550932.608632,1.577061,1.634264,0
1752550932.608632,1.530332,1.635875,0
1752550932.608632,1.473129,1.636681,0
1752550932.608632,1.407819,1.637487,0
1752550932.608632,1.34981,1.642321,0
1752550932.6096292,1.311138,1.658485,0
1752550932.6096292,1.282939,1.67057,0
1752550932.6096292,1.274882,1.681849,0
1752550932.6096292,1.331279,1.685878,0
1752550932.610626,1.369952,1.689906,0
1752550932.610626,1.408624,1.693129,0
1752550932.610626,1.445736,1.691518,0
1752550932.6215973,1.47474,1.685878,0
1752550932.6235917,1.512607,1.682655,0
1752550932.6305735,1.541611,1.67621,0
1752550932.633567,1.556919,1.672181,0
1752550932.6415436,1.568199,1.669764,0
1752550932.6425407,1.589146,1.65929,0
1752550932.6455326,1.612511,1.652039,0
1752550932.6485248,1.607677,1.643932,0
1752550932.6495218,1.581895,1.639098,0
1752550932.6505215,1.526303,1.639904,0
1752550932.6505215,1.4691,1.643932,0
1752550932.6505215,1.399762,1.651234,0
1752550932.6505215,1.34417,1.654456,0
1752550932.6515176,1.308721,1.663319,0
1752550932.6515176,1.282939,1.672987,0
1752550932.6515176,1.278911,1.677821,0
1752550932.6515176,1.328057,1.677015,0
1752550932.652514,1.365118,1.678627,0
1752550932.652514,1.402985,1.678627,0
1752550932.652514,1.44493,1.683461,0
1752550932.652514,1.47474,1.683461,0
1752550932.6535118,1.515024,1.677015,0
1752550932.6535118,1.538389,1.681044,0
1752550932.6535118,1.556919,1.678627,0
1752550932.6545103,1.566587,1.677015,0
1752550932.664482,1.586729,1.672987,0
1752550932.6664782,1.60526,1.666541,0
1752550932.6744556,1.608482,1.657679,0
1752550932.6764503,1.574644,1.650428,0
1752550932.6834314,1.526303,1.645544,0
1752550932.6854272,1.472323,1.646349,0
1752550932.6884181,1.402179,1.651234,0
1752550932.6904128,1.34417,1.654456,0
1752550932.6934047,1.304692,1.66493,0
1752550932.6934047,1.278911,1.672987,0
1752550932.694403,1.282939,1.679432,0
1752550932.694403,1.332891,1.681044,0
1752550932.694403,1.375592,1.684266,0
1752550932.694403,1.411041,1.684266,0
1752550932.694403,1.448153,1.6891,0
1752550932.6953995,1.477963,1.692323,0
1752550932.6953995,1.516635,1.686683,0
1752550932.6953995,1.539194,1.683461,0
1752550932.6953995,1.557725,1.677015,0
1752550932.6963966,1.568199,1.672181,0
1752550932.6963966,1.589146,1.66493,0
1752550932.6963966,1.614122,1.656873,0
1752550932.6963966,1.609288,1.644738,0
1752550932.697394,1.577867,1.637487,0
1752550932.697394,1.523081,1.638293,0
1752550932.7063704,1.463461,1.640709,0
1752550932.7093623,1.394928,1.646349,0
1752550932.7143488,1.341753,1.656068,0
1752550932.7193363,1.304692,1.666541,0
1752550932.7243223,1.279716,1.679432,0
1752550932.7283118,1.28455,1.681044,0
1752550932.731304,1.336919,1.684266,0
1752550932.7342968,1.376397,1.687489,0
1752550932.73629,1.418293,1.686683,0
1752550932.73629,1.451376,1.687489,0
1752550932.7372878,1.479574,1.685878,0
1752550932.7372878,1.513413,1.674598,0
1752550932.7372878,1.540806,1.667347,0
1752550932.7372878,1.548862,1.668959,0
1752550932.7372878,1.560948,1.65929,0
1752550932.7382846,1.587535,1.646349,0
1752550932.7382846,1.609288,1.645544,0
1752550932.7382846,1.598814,1.655262,0
1752550932.7382846,1.566587,1.653651,0
1752550932.7392821,1.523081,1.644738,0
1752550932.7392821,1.461849,1.646349,0
1752550932.7392821,1.395734,1.654456,0
1752550932.7392821,1.341753,1.661707,0
1752550932.7402787,1.304692,1.668153,0
1752550932.7402787,1.277299,1.67621,0
1752550932.7512515,1.281327,1.680238,0
1752550932.7532449,1.336113,1.683461,0
1752550932.7612238,1.376397,1.687489,0
1752550932.7632182,1.413458,1.690712,0
1752550932.7711964,1.45057,1.695546,0
1752550932.772194,1.48602,1.697157,0
1752550932.7751865,1.519858,1.691518,0
1752550932.7791753,1.547251,1.686683,0
1752550932.7791753,1.562559,1.685878,0
1752550932.7791753,1.570616,1.679432,0
1752550932.7801728,1.593175,1.66493,0
1752550932.7801728,1.614928,1.653651,0
1752550932.7801728,1.607677,1.639904,0
1752550932.7801728,1.574644,1.634264,0
1752550932.7801728,1.521469,1.632653,0
1752550932.781171,1.465878,1.63507,0
1752550932.781171,1.397345,1.639904,0
1752550932.781171,1.341753,1.645544,0
1752550932.781171,1.300664,1.647155,0
1752550932.7821672,1.277299,1.65929,0
1752550932.7821672,1.285356,1.668153,0
1752550932.7821672,1.335308,1.673793,0
1752550932.7821672,1.375592,1.677821,0
1752550932.783165,1.413458,1.681044,0
1752550932.783165,1.448153,1.684266,0
1752550932.783165,1.485214,1.687489,0
1752550932.7841623,1.519052,1.681044,0
1752550932.7841623,1.538389,1.682655,0
1752550932.7841623,1.553697,1.678627,0
1752550932.7851603,1.565782,1.671376,0
1752550932.7851603,1.588341,1.661707,0
1752550932.7851603,1.608482,1.658485,0
1752550932.7851603,1.606066,1.650428,0
1752550932.7941356,1.577061,1.639904,0
1752550932.7971277,1.521469,1.639098,0
1752550932.7991214,1.461044,1.644738,0
1752550932.808099,1.387677,1.655262,0
1752550932.8100934,1.331279,1.657679,0
1752550932.8190696,1.293413,1.666541,0
1752550932.8200657,1.270854,1.675404,0
1752550932.8230574,1.286967,1.673793,0
1752550932.8260498,1.337725,1.672987,0
1752550932.8270476,1.380426,1.673793,0
1752550932.8270476,1.41507,1.677015,0
1752550932.8280447,1.453793,1.681044,0
1752550932.8280447,1.485214,1.682655,0
1752550932.8280447,1.518247,1.679432,0
1752550932.8280447,1.544028,1.680238,0
1752550932.8280447,1.560948,1.680238,0
1752550932.829042,1.568199,1.672987,0
1752550932.829042,1.595592,1.661707,0
1752550932.829042,1.3909,1.651234,0
1752550932.829042,1.340948,1.656873,0
1752550932.8300395,1.299858,1.665736,0
1752550932.8300395,1.273271,1.678627,0
1752550932.8300395,1.280522,1.681044,0
1752550932.8300395,1.338531,1.685072,0
1752550932.831037,1.378009,1.6891,0
1752550932.831037,1.415875,1.690712,0
1752550932.8330336,1.451376,1.686683,0
1752550932.843004,1.482797,1.685072,0
1752550932.8459964,1.521469,1.679432,0
1752550932.8539748,1.542417,1.682655,0
1752550932.8559704,1.557725,1.677821,0
1752550932.8629513,1.567393,1.669764,0
1752550932.865944,1.593175,1.664124,0
1752550932.8679376,1.614122,1.65929,0
1752550932.8719277,1.59962,1.655262,0
1752550932.8719277,1.56981,1.647961,0
1752550932.8719277,1.51583,1.647155,0
1752550932.8729246,1.461849,1.647155,0
1752550932.8729246,1.399762,1.650428,0
1752550932.8729246,1.340948,1.657679,0
1752550932.8729246,1.296635,1.669764,0
1752550932.8729246,1.271659,1.677015,0
1752550932.8739226,1.28455,1.678627,0
1752550932.8739226,1.342559,1.680238,0
1752550932.8739226,1.382843,1.684266,0
1752550932.8739226,1.418293,1.689906,0
1752550932.8749192,1.45621,1.689906,0
1752550932.8749192,1.497299,1.683461,0
1752550932.8749192,1.535972,1.672181,0
1752550932.8749192,1.538389,1.661707,0
1752550932.875916,1.549668,1.654456,0
1752550932.875916,1.560142,1.646349,0
1752550932.886888,1.585924,1.638293,0
1752550932.8898792,1.606871,1.632653,0
1752550932.897858,1.583507,1.632653,0
1752550932.9008515,1.55853,1.631847,0
1752550932.907831,1.511801,1.63507,0
1752550932.9098253,1.457821,1.639904,0
1752550932.9118207,1.386871,1.657679,0
1752550932.9148118,1.341753,1.66493,0
1752550932.91581,1.300664,1.677015,0
1752550932.91581,1.272465,1.6891,0
1752550932.91581,1.295024,1.687489,0
1752550932.91581,1.341753,1.692323,0
1752550932.916807,1.378009,1.692323,0
1752550932.916807,1.418293,1.690712,0
1752550932.9178042,1.452181,1.692323,0
1752550932.9178042,1.486825,1.691518,0
1752550932.9178042,1.52872,1.687489,0
1752550932.9188032,1.549668,1.681044,0
1752550932.9188032,1.56417,1.675404,0
1752550932.9188032,1.572227,1.669764,0
1752550932.9188032,1.594786,1.658485,0
1752550932.9198,1.613317,1.641515,0
1752550932.9198,1.601231,1.634264,0
1752550932.9297724,1.568199,1.631847,0
1752550932.9327645,1.512607,1.627013,0
1752550932.9407434,1.422321,1.632653,0
1752550932.9427438,1.336919,1.647961,0
1752550932.9517148,1.29583,1.658485,0
1752550932.952711,1.270854,1.672987,0
1752550932.955703,1.288579,1.680238,0
1752550932.958695,1.34417,1.678627,0
1752550932.9596927,1.382037,1.685878,0
1752550932.9596927,1.423932,1.693935,0
1752550932.9596927,1.452987,1.704408,0
1752550932.9606893,1.484408,1.705214,0
1752550932.9606893,1.523886,1.696352,0
1752550932.9606893,1.544028,1.686683,0
1752550932.9606893,1.556919,1.677821,0
1752550932.9616873,1.567393,1.672181,0
1752550932.9616873,1.589952,1.666541,0
1752550932.9616873,1.613317,1.647961,0
1752550932.9616873,1.59962,1.639098,0
1752550932.9616873,1.566587,1.635875,0
1752550932.9626844,1.508579,1.636681,0
1752550932.9626844,1.45057,1.635875,0
1752550932.9626844,1.382037,1.639098,0
1752550932.963683,1.332891,1.641515,0
1752550932.963683,1.293413,1.655262,0
1752550932.9746528,1.273271,1.663319,0
1752550932.9766474,1.293413,1.666541,0
1752550932.9846263,1.343365,1.672181,0
1752550932.9876173,1.381231,1.679432,0
1752550932.9945984,1.418293,1.686683,0
1752550932.9965942,1.457821,1.687489,0
1752550932.9995856,1.488437,1.6891,0
1752550933.0025783,1.523081,1.688295,0
1752550933.0035753,1.541611,1.687489,0
1752550933.0035753,1.557725,1.684266,0
1752550933.0035753,1.570616,1.67621,0
1752550933.0035753,1.596397,1.665736,0
1752550933.0045733,1.614928,1.654456,0
1752550933.0045733,1.598814,1.647155,0
1752550933.0045733,1.566587,1.639904,0
1752550933.0045733,1.510996,1.641515,0
1752550933.0045733,1.457015,1.643126,0
1752550933.0055695,1.382843,1.650428,0
1752550933.0055695,1.339336,1.652845,0
1752550933.0055695,1.300664,1.66493,0
1752550933.0055695,1.277299,1.669764,0
1752550933.0055695,1.29583,1.675404,0
1752550933.006567,1.341753,1.678627,0
1752550933.006567,1.37962,1.685072,0
1752550933.006567,1.416681,1.686683,0
1752550933.0075648,1.451376,1.689906,0
1752550933.0075648,1.484408,1.687489,0
1752550933.0075648,1.524692,1.688295,0
1752550933.0185356,1.546445,1.685072,0
1752550933.021527,1.56417,1.673793,0
1752550933.0285084,1.570616,1.667347,0
1752550933.0315006,1.596397,1.656068,0
1752550933.0394793,1.613317,1.645544,0
1752550933.0414736,1.59398,1.642321,0
1752550933.044466,1.56417,1.636681,0
1752550933.0474577,1.508579,1.631847,0
1752550933.0474577,1.452181,1.635875,0
1752550933.0474577,1.380426,1.646349,0
1752550933.0474577,1.336919,1.652845,0
1752550933.0484557,1.298247,1.660902,0
1752550933.0484557,1.273271,1.674598,0
1752550933.0484557,1.296635,1.685878,0
1752550933.0484557,1.34417,1.698769,0
1752550933.0494537,1.390094,1.697963,0
1752550933.0494537,1.431989,1.693935,0
1752550933.0494537,1.458627,1.693129,0
1752550933.0494537,1.486825,1.691518,0
1752550933.0504494,1.52872,1.677015,0
1752550933.0504494,1.536777,1.666541,0
1752550933.0504494,1.53436,1.672987,0
1752550933.0514486,1.549668,1.667347,0
1752550933.0514486,1.590758,1.656068,0
1752550933.0514486,1.609288,1.647961,0
1752550933.0614202,1.593175,1.650428,0
1752550933.063414,1.569004,1.641515,0
1752550933.0654106,1.514218,1.639904,0
1752550933.0733893,1.458627,1.642321,0
1752550933.0763803,1.376397,1.647961,0
1752550933.0833628,1.332085,1.660096,0
1752550933.0863538,1.287773,1.672181,0
1752550933.0893464,1.267631,1.686683,0
1752550933.091341,1.298247,1.685878,0
1752550933.091341,1.350616,1.681044,0
1752550933.092338,1.386871,1.684266,0
1752550933.092338,1.423127,1.686683,0
1752550933.092338,1.460238,1.687489,0
1752550933.092338,1.492465,1.684266,0
1752550933.0933356,1.531943,1.682655,0
1752550933.0933356,1.550474,1.67621,0
1752550933.0933356,1.568199,1.674598,0
1752550933.0933356,1.574644,1.677015,0
1752550933.0933356,1.598814,1.669764,0
1752550933.094333,1.614122,1.660902,0
1752550933.094333,1.596397,1.646349,0
1752550933.094333,1.564976,1.638293,0
1752550933.09533,1.506162,1.635875,0
1752550933.09533,1.45057,1.638293,0
1752550933.09533,1.373175,1.651234,0
1752550933.1063008,1.328057,1.656873,0
1752550933.108295,1.291801,1.666541,0
1752550933.1162734,1.266825,1.679432,0
1752550933.1192653,1.298247,1.685878,0
1752550933.1272438,1.34417,1.690712,0
1752550933.1292388,1.381231,1.689906,0
1752550933.131234,1.426349,1.685878,0
1752550933.1352553,1.458627,1.684266,0
1752550933.1362522,1.493271,1.681044,0
1752550933.1362522,1.530332,1.679432,0
1752550933.1362522,1.55128,1.678627,0
1752550933.1362522,1.571421,1.671376,0
1752550933.1362522,1.576255,1.661707,0
1752550933.137218,1.598814,1.650428,0
1752550933.137218,1.610094,1.635875,0
1752550933.137218,1.592369,1.628624,0
1752550933.137218,1.560948,1.622985,0
1752550933.1382535,1.506162,1.618956,0
1752550933.1382535,1.452181,1.622985,0
1752550933.1382535,1.374786,1.639098,0
1752550933.1382535,1.329668,1.650428,0
1752550933.1392126,1.287773,1.660902,0
1752550933.1392126,1.264408,1.67057,0
1752550933.1392126,1.298247,1.677015,0
1752550933.1392126,1.347393,1.681849,0
1752550933.1392126,1.386065,1.6891,0
1752550933.140209,1.416681,1.692323,0
1752550933.140209,1.452181,1.69474,0
1752550933.140209,1.485214,1.6891,0
1752550933.1501837,1.525498,1.685072,0
1752550933.153176,1.549668,1.683461,0
1752550933.156167,1.56417,1.683461,0
1752550933.1631486,1.573033,1.681044,0
1752550933.1661406,1.602843,1.666541,0
1752550933.1731212,1.619762,1.653651,0
1752550933.1761138,1.598814,1.643932,0
1752550933.1781082,1.560142,1.639098,0
1752550933.1801035,1.50455,1.635875,0
1752550933.1811004,1.451376,1.639098,0
1752550933.1820972,1.370758,1.647155,0
1752550933.1820972,1.329668,1.651234,0
1752550933.1820972,1.287773,1.661707,0
1752550933.1820972,1.268437,1.67621,0
1752550933.1830945,1.302275,1.681044,0
1752550933.1830945,1.350616,1.684266,0
1752550933.1830945,1.386065,1.6891,0
1752550933.1840944,1.427961,1.689906,0
1752550933.1840944,1.461849,1.693129,0
1752550933.1840944,1.495688,1.684266,0
1752550933.1840944,1.524692,1.683461,0
1752550933.185089,1.550474,1.678627,0
1752550933.185089,1.561753,1.674598,0
1752550933.185089,1.570616,1.662513,0
1752550933.185089,1.59398,1.652845,0
1752550933.1860864,1.613317,1.646349,0
1752550933.1860864,1.592369,1.641515,0
1752550933.1871164,1.552085,1.643932,0
1752550933.197096,1.499716,1.646349,0
1752550933.1990535,1.442463,1.652039,0
1752550933.207058,1.365118,1.656873,0
1752550933.210023,1.329668,1.663319,0
1752550933.218002,1.298247,1.671376,0
1752550933.219996,1.268437,1.683461,0
1752550933.2229884,1.303886,1.686683,0
1752550933.2249827,1.350616,1.686683,0
1752550933.2249827,1.386871,1.682655,0
1752550933.2259805,1.429572,1.682655,0
1752550933.2259805,1.464266,1.683461,0
1752550933.2259805,1.497299,1.685072,0
1752550933.2259805,1.52872,1.680238,0
1752550933.2269776,1.549668,1.681044,0
1752550933.2269776,1.564976,1.682655,0
1752550933.2269776,1.580284,1.673793,0
1752550933.2269776,1.602037,1.661707,0
1752550933.2269776,1.614122,1.651234,0
1752550933.227975,1.588341,1.646349,0
1752550933.227975,1.548862,1.647961,0
1752550933.227975,1.495688,1.645544,0
1752550933.227975,1.440046,1.651234,0
1752550933.2289715,1.366729,1.656873,0
1752550933.2289715,1.324028,1.661707,0
1752550933.2289715,1.292607,1.669764,0
1752550933.2289715,1.273271,1.677821,0
1752550933.24094,1.309526,1.679432,0
1752550933.2429342,1.356255,1.682655,0
1752550933.2509139,1.394122,1.685072,0
1752550933.2539058,1.434406,1.685072,0
1752550933.2608864,1.461849,1.684266,0
1752550933.2628887,1.493271,1.685878,0
1752550933.2668707,1.530332,1.684266,0
1752550933.2688658,1.549668,1.677015,0
1752550933.2698631,1.560948,1.672181,0
1752550933.2698631,1.568199,1.668959,0
1752550933.2698631,1.596397,1.66493,0
1752550933.2698631,1.618151,1.652039,0
1752550933.2698631,1.594786,1.646349,0
1752550933.2708602,1.560948,1.646349,0
1752550933.2708602,1.502939,1.643932,0
1752550933.2708602,1.440851,1.647155,0
1752550933.2708602,1.365924,1.656873,0
1752550933.2718573,1.328057,1.664124,0
1752550933.2718573,1.298247,1.673793,0
1752550933.2718573,1.267631,1.681044,0
1752550933.2718573,1.299858,1.6891,0
1752550933.2718573,1.345782,1.687489,0
1752550933.272855,1.378814,1.691518,0
1752550933.272855,1.422321,1.690712,0
1752550933.2738526,1.465072,1.683461,0
1752550933.284824,1.501328,1.679432,0
1752550933.2878146,1.529526,1.668153,0
1752550933.2947965,1.548057,1.66493,0
1752550933.2967906,1.56417,1.663319,0
1752550933.3047688,1.572227,1.658485,0
1752550933.306764,1.595592,1.650428,0
1752550933.308759,1.618956,1.642321,0
1752550933.3117511,1.594786,1.634264,0
1752550933.312748,1.553697,1.633458,0
1752550933.312748,1.495688,1.633458,0
1752550933.312748,1.437629,1.642321,0
1752550933.312748,1.361089,1.656873,0
1752550933.312748,1.323223,1.662513,0
1752550933.3137445,1.29019,1.674598,0
1752550933.3137445,1.274076,1.687489,0
1752550933.3137445,1.313555,1.6891,0
1752550933.3137445,1.354644,1.693935,0
1752550933.3147433,1.389288,1.693935,0
1752550933.3147433,1.428766,1.691518,0
1752550933.3147433,1.464266,1.6891,0
1752550933.3147433,1.502939,1.683461,0
1752550933.3147433,1.532749,1.680238,0
1752550933.3157406,1.552085,1.681044,0
1752550933.3157406,1.567393,1.674598,0
1752550933.3157406,1.581895,1.666541,0
1752550933.3267105,1.604454,1.655262,0
1752550933.328705,1.615734,1.646349,0
1752550933.3366838,1.587535,1.639098,0
1752550933.3396764,1.548862,1.640709,0
1752550933.3466892,1.486825,1.638293,0
1752550933.3476548,1.4336,1.637487,0
1752550933.3516445,1.358672,1.646349,0
1752550933.3546364,1.322417,1.652039,0
1752550933.3556333,1.290996,1.660902,0
1752550933.3556333,1.271659,1.673793,0
1752550933.3556333,1.311138,1.678627,0
1752550933.3566308,1.357061,1.685072,0
1752550933.3566308,1.392511,1.689906,0
1752550933.3566308,1.431989,1.6891,0
1752550933.3566308,1.465072,1.684266,0
1752550933.3576279,1.502133,1.681044,0
1752550933.3576279,1.527915,1.679432,0
1752550933.3576279,1.549668,1.675404,0
1752550933.3576279,1.565782,1.672181,0
1752550933.3576279,1.57545,1.667347,0
1752550933.358625,1.60526,1.655262,0
1752550933.358625,1.59962,1.643126,0
1752550933.358625,1.548862,1.644738,0
1752550933.359622,1.493271,1.644738,0
1752550933.359622,1.436017,1.647155,0
1752550933.359622,1.360284,1.653651,0
1752550933.3695962,1.320806,1.66493,0
1752550933.3715906,1.287773,1.674598,0
1752550933.379569,1.266825,1.679432,0
1752550933.382561,1.317583,1.683461,0
1752550933.3915372,1.358672,1.686683,0
1752550933.3925347,1.393317,1.689906,0
1752550933.3955266,1.429572,1.690712,0
1752550933.3985186,1.465072,1.689906,0
1752550933.3995168,1.500522,1.679432,0
1752550933.3995168,1.527915,1.678627,0
1752550933.3995168,1.548862,1.679432,0
1752550933.3995168,1.561753,1.674598,0
1752550933.4005146,1.574644,1.665736,0
1752550933.4005146,1.610094,1.657679,0
1752550933.4005146,1.616539,1.641515,0
1752550933.4005146,1.583507,1.634264,0
1752550933.4015112,1.542417,1.632653,0
1752550933.4015112,1.490048,1.631041,0
1752550933.4015112,1.436017,1.63507,0
1752550933.4015112,1.361895,1.642321,0
1752550933.4025078,1.32,1.646349,0
1752550933.4025078,1.29019,1.658485,0
1752550933.4025078,1.273271,1.668959,0
1752550933.4025078,1.316777,1.675404,0
1752550933.4134784,1.357867,1.680238,0
1752550933.415474,1.392511,1.685878,0
1752550933.4224548,1.4336,1.685072,0
1752550933.425447,1.465072,1.686683,0
1752550933.4334257,1.498105,1.683461,0
1752550933.434423,1.535166,1.680238,0
1752550933.437414,1.556113,1.678627,0
1752550933.4404063,1.567393,1.67621,0
1752550933.4414036,1.579478,1.665736,0
1752550933.4414036,1.606066,1.652845,0
1752550933.4414036,1.615734,1.644738,0
1752550933.4424005,1.587535,1.637487,0
1752550933.4424005,1.547251,1.631847,0
1752550933.4424005,1.489242,1.636681,0
1752550933.4424005,1.434406,1.641515,0
1752550933.4433975,1.361089,1.653651,0
1752550933.4433975,1.32,1.66493,0
1752550933.4433975,1.286967,1.674598,0
1752550933.4433975,1.270048,1.685072,0
1752550933.4433975,1.317583,1.687489,0
1752550933.444395,1.360284,1.686683,0
1752550933.444395,1.392511,1.6891,0
1752550933.444395,1.427961,1.692323,0
1752550933.4453933,1.463461,1.693935,0
1752550933.4543695,1.496493,1.692323,0
1752550933.456364,1.530332,1.686683,0
1752550933.4583583,1.553697,1.680238,0
1752550933.46534,1.566587,1.674598,0
1752550933.4683318,1.580284,1.666541,0
1752550933.475313,1.606871,1.652845,0
1752550933.4773078,1.619762,1.640709,0
1752550933.4802992,1.588341,1.637487,0
1752550933.4832919,1.552085,1.634264,0
1752550933.4832919,1.486825,1.634264,0
1752550933.4832919,1.428766,1.639904,0
1752550933.48429,1.352227,1.651234,0
1752550933.48429,1.315971,1.65929,0
1752550933.48429,1.283744,1.67057,0
1752550933.48429,1.268437,1.677821,0
1752550933.48429,1.312749,1.679432,0
1752550933.4852865,1.356255,1.688295,0
1752550933.4852865,1.394122,1.692323,0
1752550933.4852865,1.434406,1.692323,0
1752550933.4852865,1.472323,1.692323,0
1752550933.4862835,1.502133,1.690712,0
1752550933.4862835,1.537583,1.687489,0
1752550933.4862835,1.553697,1.681044,0
1752550933.4862835,1.563365,1.674598,0
1752550933.4872816,1.576255,1.665736,0
1752550933.4872816,1.602037,1.654456,0
1752550933.4872816,1.610094,1.644738,0
1752550933.4872816,1.586729,1.637487,0
1752550933.4882777,1.547251,1.631847,0
1752550933.4942625,1.485214,1.636681,0
1752550933.4992492,1.427961,1.638293,0
1752550933.5022414,1.356255,1.650428,0
1752550933.5092225,1.318389,1.660096,0
1752550933.5112164,1.286967,1.669764,0
1752550933.5191958,1.270854,1.681849,0
1752550933.5211902,1.322417,1.685878,0
1752550933.5241873,1.370758,1.683461,0
1752550933.5261822,1.406207,1.682655,0
1752550933.5271797,1.43924,1.686683,0
1752550933.5271797,1.468295,1.692323,0
1752550933.5271797,1.508579,1.683461,0
1752550933.5271797,1.531943,1.67621,0
1752550933.5271797,1.540806,1.67621,0
1752550933.528176,1.552085,1.679432,0
1752550933.528176,1.579478,1.677821,0
1752550933.528176,1.603648,1.668153,0
1752550933.528176,1.613317,1.660096,0
1752550933.5291736,1.579478,1.656873,0
1752550933.5291736,1.53436,1.657679,0
1752550933.5291736,1.48038,1.652845,0
1752550933.5291736,1.421515,1.651234,0
1752550933.5291736,1.357061,1.658485,0
1752550933.5301714,1.324834,1.662513,0
1752550933.5301714,1.286967,1.672181,0
1752550933.5361836,1.270854,1.681044,0
1752550933.542139,1.321611,1.684266,0
1752550933.545131,1.363507,1.685878,0
1752550933.5521123,1.402179,1.689906,0
1752550933.554107,1.434406,1.6891,0
1752550933.561088,1.465072,1.689906,0
1752550933.564081,1.502939,1.689906,0
1752550933.5670729,1.538389,1.683461,0
1752550933.5680695,1.556919,1.67621,0
1752550933.5690672,1.566587,1.666541,0
1752550933.5690672,1.585118,1.65929,0
1752550933.5690672,1.608482,1.647961,0
1752550933.5690672,1.612511,1.637487,0
1752550933.570064,1.582701,1.631041,0
1752550933.570064,1.539194,1.631847,0
1752550933.570064,1.481991,1.63507,0
1752550933.570064,1.427155,1.638293,0
1752550933.570064,1.358672,1.650428,0
1752550933.5710616,1.318389,1.65929,0
1752550933.5710616,1.289384,1.668153,0
1752550933.5710616,1.274882,1.677821,0
1752550933.5710616,1.32,1.681044,0
1752550933.5710616,1.361895,1.684266,0
1752550933.5720592,1.398956,1.685072,0
1752550933.5720592,1.431183,1.691518,0
1752550933.574055,1.463461,1.693129,0
1752550933.5830302,1.50455,1.6891,0
1752550933.586022,1.537583,1.679432,0
1752550933.5930035,1.553697,1.678627,0
1752550933.5959954,1.562559,1.671376,0
1752550933.6030085,1.584312,1.663319,0
1752550933.605005,1.608482,1.646349,0
1752550933.6079648,1.614928,1.633458,0
1752550933.609958,1.584312,1.628624,0
1752550933.6109548,1.537583,1.628624,0
1752550933.6109548,1.483603,1.627819,0
1752550933.6109548,1.416681,1.639098,0
1752550933.6119523,1.350616,1.650428,0
1752550933.6119523,1.311138,1.660902,0
1752550933.6119523,1.282939,1.674598,0
1752550933.6119523,1.272465,1.681044,0
1752550933.6119523,1.32,1.683461,0
1752550933.6129496,1.361895,1.685072,0
1752550933.6129496,1.398956,1.686683,0
1752550933.6129496,1.437629,1.685878,0
1752550933.6129496,1.476351,1.685072,0
1752550933.6129496,1.51019,1.682655,0
1752550933.6139474,1.538389,1.679432,0
1752550933.6139474,1.557725,1.672987,0
1752550933.6139474,1.569004,1.672987,0
1752550933.6149452,1.589146,1.667347,0
1752550933.6249175,1.611705,1.65929,0
1752550933.6279094,1.613317,1.651234,0
1752550933.634891,1.583507,1.642321,0
1752550933.6368854,1.537583,1.641515,0
1752550933.644864,1.481186,1.639904,0
1752550933.6458614,1.419098,1.647961,0
1752550933.6488538,1.349004,1.651234,0
1752550933.6518445,1.311138,1.664124,0
1752550933.6528428,1.281327,1.677015,0
1752550933.6528428,1.270048,1.686683,0
1752550933.6528428,1.323223,1.687489,0
1752550933.6538396,1.369146,1.685878,0
1752550933.6538396,1.410236,1.682655,0
1752550933.6538396,1.443269,1.683461,0
1752550933.6538396,1.465878,1.686683,0
1752550933.6538396,1.497299,1.683461,0
1752550933.654838,1.525498,1.67621,0
1752550933.654838,1.549668,1.672181,0
1752550933.654838,1.564976,1.663319,0
1752550933.654838,1.582701,1.657679,0
1752550933.6558342,1.608482,1.653651,0
1752550933.6558342,1.610094,1.644738,0
1752550933.6558342,1.583507,1.643932,0
1752550933.6558342,1.535972,1.639904,0
1752550933.6568325,1.477157,1.638293,0
1752550933.6668055,1.413458,1.642321,0
1752550933.6688006,1.351421,1.647961,0
1752550933.676779,1.316777,1.656873,0
1752550933.6787734,1.289384,1.665736,0
1752550933.686752,1.274882,1.671376,0
1752550933.6877835,1.328862,1.673793,0
1752550933.6897438,1.369146,1.681044,0
1752550933.6927366,1.400568,1.687489,0
1752550933.694731,1.440046,1.693935,0
1752550933.694731,1.4691,1.693129,0
1752550933.694731,1.508579,1.689906,0
1752550933.694731,1.537583,1.683461,0
1752550933.695728,1.556113,1.671376,0
1752550933.695728,1.567393,1.66493,0
1752550933.695728,1.585924,1.661707,0
1752550933.695728,1.608482,1.657679,0
1752550933.6967258,1.606066,1.647961,0
1752550933.6967258,1.579478,1.639904,0
1752550933.6967258,1.542417,1.638293,0
1752550933.6967258,1.481186,1.639098,0
1752550933.6967258,1.41507,1.641515,0
1752550933.6977232,1.344976,1.650428,0
1752550933.6977232,1.309526,1.66493,0
1752550933.6977232,1.28455,1.67621,0
1752550933.6987193,1.270048,1.687489,0
1752550933.6987193,1.324834,1.6891,0
1752550933.7076962,1.366729,1.69474,0
1752550933.7106874,1.408624,1.689906,0
1752550933.7176695,1.444124,1.693935,0
1752550933.7206612,1.47474,1.693129,0
1752550933.7281618,1.51019,1.684266,0
1752550933.7301562,1.535972,1.677821,0
1752550933.7331498,1.556919,1.672181,0
1752550933.7361407,1.569004,1.67057,0
1752550933.737138,1.585118,1.66493,0
1752550933.737138,1.607677,1.656068,0
1752550933.737138,1.60526,1.647961,0
1752550933.737138,1.573033,1.642321,0
1752550933.737138,1.526303,1.642321,0
1752550933.7381353,1.478769,1.635875,0
1752550933.7381353,1.410236,1.639098,0
1752550933.7381353,1.350616,1.643932,0
1752550933.7381353,1.312749,1.653651,0
1752550933.7391322,1.287773,1.663319,0
1752550933.7391322,1.277299,1.672181,0
1752550933.7391322,1.326445,1.672987,0
1752550933.7391322,1.369146,1.671376,0
1752550933.7391322,1.401373,1.677015,0
1752550933.7401302,1.438434,1.685072,0
1752550933.7401302,1.472323,1.6891,0
1752550933.7401302,1.508579,1.689906,0
1752550933.7501032,1.543223,1.6891,0
1752550933.7530959,1.563365,1.682655,0
1752550933.7600768,1.570616,1.677821,0
1752550933.7620718,1.592369,1.669764,0
1752550933.77005,1.613317,1.656068,0
1752550933.7710476,1.611705,1.646349,0
1752550933.77404,1.579478,1.650428,0
1752550933.7770317,1.527915,1.654456,0
1752550933.7780285,1.465878,1.654456,0
1752550933.7780285,1.402985,1.665736,0
1752550933.7790263,1.340948,1.669764,0
1752550933.7790263,1.303081,1.67621,0
1752550933.7790263,1.278911,1.688295,0
1752550933.7790263,1.273271,1.693935,0
1752550933.7800229,1.32,1.692323,0
1752550933.7800229,1.374786,1.687489,0
1752550933.7800229,1.415875,1.682655,0
1752550933.7800229,1.451376,1.683461,0
1752550933.7800229,1.481186,1.683461,0
1752550933.7810209,1.513413,1.677015,0
1752550933.7810209,1.535166,1.672987,0
1752550933.7810209,1.56417,1.669764,0
1752550933.7820191,1.589146,1.661707,0
1752550933.7820191,1.608482,1.655262,0
1752550933.7820191,1.606066,1.643126,0
1752550933.7920246,1.577867,1.633458,0
1752550933.7950168,1.531943,1.631041,0
1752550933.8019967,1.476351,1.62943,0
1752550933.8049564,1.412653,1.635875,0
1752550933.8119383,1.34981,1.644738,0
1752550933.8129354,1.311138,1.657679,0
1752550933.8159268,1.277299,1.671376,0
1752550933.8189192,1.274076,1.680238,0
1752550933.8199165,1.326445,1.681849,0
1752550933.8199165,1.369146,1.685878,0
1752550933.8209143,1.40943,1.687489,0
1752550933.8209143,1.44493,1.681044,0
1752550933.8209143,1.473129,1.682655,0
1752550933.8209143,1.511801,1.680238,0
1752550933.8219118,1.535166,1.677821,0
1752550933.8219118,1.557725,1.677821,0
1752550933.8219118,1.564976,1.673793,0
1752550933.8219118,1.588341,1.667347,0
1752550933.8219118,1.613317,1.653651,0
1752550933.8229084,1.608482,1.642321,0
1752550933.8229084,1.576255,1.637487,0
1752550933.8229084,1.52872,1.633458,0
1752550933.8229084,1.47474,1.637487,0
1752550933.8229084,1.408624,1.651234,0
1752550933.8242657,1.352227,1.653651,0
1752550933.8243072,1.313555,1.663319,0
1752550933.8243072,1.28455,1.677015,0
1752550933.8243072,1.28455,1.685878,0
1752550933.8252656,1.326445,1.683461,0
1752550933.8252656,1.359478,1.686683,0
1752550933.8252656,1.399762,1.691518,0
1752550933.8362362,1.443269,1.682655,0
1752550933.8382313,1.473129,1.677821,0
1752550933.8452122,1.506162,1.675404,0
1752550933.8482034,1.531138,1.674598,0
1752550933.8561833,1.553697,1.67057,0
1752550933.858178,1.567393,1.672987,0
1752550933.8611693,1.590758,1.669764,0
1752550933.864162,1.617345,1.658485,0
1752550933.864162,1.607677,1.645544,0
1752550933.864162,1.579478,1.642321,0
1752550933.8651583,1.52872,1.637487,0
1752550933.8651583,1.469906,1.639098,0
1752550933.8651583,1.40379,1.638293,0
1752550933.8651583,1.348199,1.652039,0
1752550933.866158,1.309526,1.669764,0
1752550933.866158,1.282939,1.678627,0
1752550933.866158,1.279716,1.682655,0
1752550933.866158,1.335308,1.680238,0
1752550933.8671534,1.37398,1.685072,0
1752550933.8671534,1.407013,1.685072,0
1752550933.8671534,1.443269,1.684266,0
1752550933.8671534,1.473935,1.685072,0
1752550933.8681502,1.51583,1.685072,0
1752550933.8681502,1.54,1.685878,0
1752550933.8681502,1.555308,1.677015,0
1752550933.8781242,1.567393,1.672987,0
1752550933.8801188,1.585924,1.661707,0
1752550933.8871,1.610899,1.647961,0
1752550933.8900914,1.609288,1.639904,0
1752550933.898071,1.577061,1.633458,0
1752550933.899068,1.524692,1.631041,0
1752550933.9020605,1.473129,1.626207,0
1752550933.9050522,1.394928,1.63507,0
1752550933.9060495,1.338531,1.643932,0
1752550933.9060495,1.303886,1.655262,0
1752550933.9060495,1.279716,1.672181,0
1752550933.9070473,1.279716,1.677821,0
1752550933.9070473,1.330474,1.682655,0
1752550933.9070473,1.378009,1.684266,0
1752550933.9070473,1.415875,1.691518,0
1752550933.908044,1.447347,1.693129,0
1752550933.908044,1.478769,1.687489,0
1752550933.908044,1.506162,1.679432,0
1752550933.908044,1.531943,1.675404,0
1752550933.908044,1.55128,1.672181,0
1752550933.9090414,1.560948,1.667347,0
1752550933.9090414,1.588341,1.652845,0
1752550933.9090414,1.611705,1.632653,0
1752550933.9100385,1.602843,1.627013,0
1752550933.9100385,1.577061,1.62943,0
1752550933.9180167,1.524692,1.634264,0
1752550933.9210093,1.469906,1.642321,0
1752550933.924002,1.402985,1.651234,0
1752550933.9309828,1.618151,1.634264,0
1752550933.9389615,1.593175,1.62943,0
1752550933.9399588,1.556919,1.627013,0
1752550933.942951,1.494076,1.628624,0
1752550933.9459753,1.443269,1.632653,0
1752550933.94694,1.362701,1.645544,0
1752550933.94694,1.328057,1.653651,0
1752550933.94694,1.293413,1.664124,0
1752550933.947965,1.268437,1.673793,0
1752550933.947965,1.298247,1.683461,0
1752550933.947965,1.341753,1.689906,0
1752550933.947965,1.375592,1.699574,0
1752550933.9489353,1.424738,1.699574,0
1752550933.9489353,1.466683,1.697157,0
1752550933.9489353,1.500522,1.693129,0
1752550933.9489353,1.535166,1.693935,0
1752550933.9489353,1.544834,1.686683,0
1752550933.9499643,1.556919,1.679432,0
1752550933.9499643,1.569004,1.669764,0
1752550933.9499643,1.606871,1.652845,0
1752550933.9499643,1.616539,1.640709,0
1752550933.950929,1.586729,1.631041,0
1752550933.9599319,1.548862,1.631847,0
1752550933.9618998,1.497299,1.62943,0
1752550933.9638941,1.441657,1.631847,0
1752550933.9708762,1.366729,1.640709,0
1752550933.9768598,1.324028,1.660096,0
1752550933.979852,1.291801,1.674598,0
1752550933.9828484,1.273271,1.680238,0
1752550933.9858353,1.309526,1.688295,0
1752550933.9878309,1.35545,1.693935,0
1752550933.9878309,1.391705,1.697157,0
1752550933.9878309,1.434406,1.695546,0
1752550933.9888282,1.467489,1.692323,0
1752550933.9888282,1.503745,1.690712,0
1752550933.9888282,1.535166,1.684266,0
1752550933.9888282,1.552085,1.677821,0
1752550933.9888282,1.563365,1.675404,0
1752550933.9898252,1.577867,1.669764,0
1752550933.9898252,1.602843,1.658485,0
1752550933.9898252,1.612511,1.647155,0
1752550933.9898252,1.585924,1.647155,0
1752550933.9908226,1.54564,1.646349,0
1752550933.9908226,1.490048,1.640709,0
1752550933.9908226,1.431989,1.645544,0
1752550933.9908226,1.361895,1.652845,0
1752550933.99182,1.324028,1.65929,0
1752550933.99182,1.290996,1.667347,0
1752550934.0037887,1.271659,1.677821,0
1752550934.0057821,1.308721,1.686683,0
1752550934.012764,1.357061,1.690712,0
1752550934.0167544,1.391705,1.687489,0
1752550934.0227373,1.4336,1.683461,0
1752550934.024732,1.464266,1.679432,0
1752550934.0267258,1.497299,1.680238,0
1752550934.0297186,1.531138,1.679432,0
1752550934.0307162,1.549668,1.677821,0
1752550934.0307162,1.564976,1.677821,0
1752550934.0307162,1.576255,1.677015,0
1752550934.0307162,1.60526,1.668153,0
1752550934.0307162,1.606066,1.656873,0
1752550934.031713,1.580284,1.647961,0
1752550934.031713,1.54564,1.643932,0
1752550934.031713,1.490854,1.642321,0
1752550934.031713,1.431989,1.642321,0
1752550934.0327115,1.360284,1.643932,0
1752550934.0327115,1.32564,1.652039,0
1752550934.0327115,1.291801,1.66493,0
1752550934.0327115,1.270854,1.679432,0
1752550934.0327115,1.348199,1.693129,0
1752550934.0337086,1.390094,1.6891,0
1752550934.0337086,1.434406,1.682655,0
1752550934.0337086,1.469906,1.683461,0
1752550934.0436819,1.498105,1.684266,0
1752550934.045676,1.527109,1.683461,0
1752550934.0536554,1.549668,1.677015,0
1752550934.0556495,1.566587,1.671376,0
1752550934.0636282,1.573033,1.663319,0
1752550934.0656238,1.602037,1.654456,0
1752550934.0676172,1.613317,1.643126,0
1752550934.070609,1.593175,1.639904,0
1752550934.0716074,1.550474,1.631041,0
1752550934.0716074,1.493271,1.631041,0
1752550934.0716074,1.436017,1.63507,0
1752550934.0716074,1.357867,1.642321,0
1752550934.0726042,1.318389,1.651234,0
1752550934.0726042,1.286967,1.660902,0
1752550934.0726042,1.268437,1.677015,0
1752550934.0726042,1.311138,1.678627,0
1752550934.0736017,1.356255,1.680238,0
1752550934.0736017,1.394122,1.681044,0
1752550934.0736017,1.431989,1.686683,0
1752550934.0736017,1.461044,1.6891,0
1752550934.0736017,1.500522,1.683461,0
1752550934.0745993,1.538389,1.67621,0
1752550934.0745993,1.557725,1.666541,0
1752550934.0745993,1.570616,1.65929,0
1752550934.0745993,1.577061,1.652845,0
1752550934.0845726,1.598814,1.643932,0
1752550934.0875638,1.608482,1.639904,0
1752550934.0945454,1.582701,1.639098,0
1752550934.0975375,1.543223,1.635875,0
1752550934.104519,1.490048,1.63507,0
1752550934.1055157,1.436017,1.639098,0
1752550934.1085083,1.360284,1.646349,0
1752550934.110502,1.319194,1.658485,0
1752550934.1124973,1.289384,1.668153,0
1752550934.1124973,1.274076,1.677015,0
1752550934.1124973,1.316777,1.680238,0
1752550934.1134946,1.360284,1.684266,0
1752550934.1134946,1.398956,1.684266,0
1752550934.1134946,1.435212,1.685878,0
1752550934.1134946,1.464266,1.6891,0
1752550934.1134946,1.498105,1.691518,0
1752550934.114493,1.527915,1.689906,0
1752550934.114493,1.548057,1.690712,0
1752550934.114493,1.569004,1.680238,0
1752550934.114493,1.583507,1.665736,0
1752550934.1154902,1.610899,1.658485,0
1752550934.1154902,1.612511,1.646349,0
1752550934.1154902,1.583507,1.641515,0
1752550934.1164923,1.543223,1.638293,0
1752550934.1164923,1.487631,1.641515,0
1752550934.1244643,1.431183,1.652845,0
1752550934.1274576,1.361089,1.666541,0
1752550934.1294518,1.32,1.67621,0
1752550934.1364334,1.287773,1.685072,0
1752550934.138427,1.269242,1.690712,0
1752550934.146407,1.313555,1.688295,0
1752550934.147404,1.357867,1.686683,0
1752550934.150396,1.395734,1.6891,0
1752550934.153388,1.438434,1.685072,0
1752550934.153388,1.467489,1.681044,0
1752550934.1543863,1.498105,1.684266,0
1752550934.1543863,1.530332,1.685072,0
1752550934.1543863,1.552085,1.682655,0
1752550934.1543863,1.563365,1.680238,0
1752550934.1543863,1.582701,1.67057,0
1752550934.1553822,1.60526,1.655262,0
1752550934.1553822,1.606871,1.646349,0
1752550934.1553822,1.579478,1.639904,0
1752550934.1553822,1.542417,1.639098,0
1752550934.1553822,1.48602,1.640709,0
1752550934.15638,1.431183,1.647961,0
1752550934.15638,1.356255,1.65929,0
1752550934.15638,1.319194,1.661707,0
1752550934.15638,1.287773,1.666541,0
1752550934.1573775,1.274882,1.674598,0
1752550934.1573775,1.317583,1.680238,0
1752550934.1673503,1.364312,1.684266,0
1752550934.1693456,1.402179,1.685878,0
1752550934.176326,1.436017,1.690712,0
1752550934.1793177,1.466683,1.687489,0
1752550934.1872973,1.494076,1.684266,0
1752550934.189292,1.524692,1.686683,0
1752550934.1912863,1.543223,1.682655,0
1752550934.1942792,1.560142,1.67621,0
1752550934.1942792,1.578672,1.67057,0
1752550934.195276,1.601231,1.660902,0
1752550934.195276,1.612511,1.651234,0
1752550934.195276,1.585924,1.645544,0
1752550934.195276,1.544834,1.644738,0
1752550934.196273,1.483603,1.645544,0
1752550934.196273,1.422321,1.645544,0
1752550934.196273,1.356255,1.652845,0
1752550934.196273,1.32,1.657679,0
1752550934.196273,1.29019,1.667347,0
1752550934.1972706,1.274882,1.67621,0
1752550934.1972706,1.32564,1.678627,0
1752550934.1972706,1.366729,1.684266,0
1752550934.1972706,1.402985,1.686683,0
1752550934.198268,1.43924,1.686683,0
1752550934.198268,1.468295,1.686683,0
1752550934.207243,1.503745,1.683461,0
1752550934.2092388,1.535972,1.681044,0
1752550934.2112331,1.555308,1.674598,0
1752550934.2192123,1.568199,1.669764,0
1752550934.2271905,1.582701,1.660902,0
1752550934.2281873,1.608482,1.650428,0
1752550934.2311797,1.610899,1.639904,0
1752550934.2341719,1.581895,1.631041,0
1752550934.2351692,1.533555,1.626207,0
1752550934.2361665,1.477963,1.627819,0
1752550934.2361665,1.422321,1.633458,0
1752550934.2361665,1.353838,1.645544,0
1752550934.2361665,1.315971,1.656068,0
1752550934.2371635,1.289384,1.66493,0
1752550934.2371635,1.268437,1.677015,0
1752550934.2371635,1.319194,1.683461,0
1752550934.2371635,1.362701,1.691518,0
1752550934.238161,1.401373,1.689906,0
1752550934.238161,1.43924,1.686683,0
1752550934.238161,1.470712,1.687489,0
1752550934.238161,1.506162,1.689906,0
1752550934.238161,1.540806,1.683461,0
1752550934.2391586,1.557725,1.677015,0
1752550934.2391586,1.567393,1.673793,0
1752550934.2481344,1.584312,1.666541,0
1752550934.2511265,1.603648,1.65929,0
1752550934.2531211,1.609288,1.653651,0
1752550934.2601025,1.577061,1.654456,0
1752550934.263095,1.532749,1.650428,0
1752550934.2700758,1.477963,1.644738,0
1752550934.2710738,1.419904,1.648766,0
1752550934.2740655,1.352227,1.654456,0
1752550934.277057,1.313555,1.664124,0
1752550934.2780547,1.287773,1.673793,0
1752550934.2780547,1.272465,1.682655,0
1752550934.2780547,1.32564,1.682655,0
1752550934.2780547,1.364312,1.686683,0
1752550934.2790518,1.401373,1.692323,0
1752550934.2790518,1.436017,1.692323,0
1752550934.2790518,1.477157,1.689906,0
1752550934.2790518,1.506967,1.686683,0
1752550934.280049,1.535972,1.683461,0
1752550934.280049,1.55128,1.679432,0
1752550934.280049,1.562559,1.67057,0
1752550934.280049,1.583507,1.660096,0
1752550934.280049,1.609288,1.646349,0
1752550934.2810464,1.611705,1.638293,0
1752550934.2810464,1.582701,1.63507,0
1752550934.2810464,1.537583,1.632653,0
1752550934.290049,1.477963,1.633458,0
1752550934.2930417,1.411041,1.644738,0
1752550934.2950358,1.34417,1.655262,0
1752550934.3030226,1.307109,1.660902,0
1752550934.3050144,1.286162,1.666541,0
1752550934.3119643,1.277299,1.675404,0
1752550934.3129938,1.328862,1.675404,0
1752550934.3159537,1.369146,1.680238,0
1752550934.3179808,1.407013,1.684266,0
1752550934.3189447,1.444124,1.683461,0
1752550934.3199763,1.473935,1.683461,0
1752550934.3199763,1.503745,1.684266,0
1752550934.3199763,1.537583,1.686683,0
1752550934.3199763,1.556919,1.682655,0
1752550934.3209717,1.56417,1.674598,0
1752550934.3209717,1.573033,1.67057,0
1752550934.3209717,1.598814,1.661707,0
1752550934.3209717,1.610094,1.651234,0
1752550934.3209717,1.581089,1.637487,0
1752550934.3219717,1.538389,1.638293,0
1752550934.3219717,1.483603,1.638293,0
1752550934.3219717,1.423932,1.639904,0
1752550934.3219717,1.35545,1.650428,0
1752550934.3229337,1.307109,1.656873,0
1752550934.3229337,1.274882,1.673793,0
1752550934.3329453,1.267631,1.682655,0
1752550934.3349345,1.317583,1.681044,0
1752550934.3369288,1.362701,1.686683,0
1752550934.3438787,1.402985,1.687489,0
1752550934.345907,1.444124,1.6891,0
1752550934.3528862,1.476351,1.688295,0
1752550934.3538525,1.511801,1.685072,0
1752550934.3558788,1.536777,1.683461,0
1752550934.3578737,1.55128,1.679432,0
1752550934.3608649,1.560948,1.677015,0
1752550934.3608649,1.579478,1.67057,0
1752550934.3608649,1.610899,1.660096,0
1752550934.3618646,1.614122,1.647961,0
1752550934.3618646,1.582701,1.639904,0
1752550934.3618646,1.538389,1.634264,0
1752550934.3618646,1.481186,1.638293,0
1752550934.3618646,1.412653,1.645544,0
1752550934.3628595,1.349004,1.651234,0
1752550934.3628595,1.315971,1.65929,0
1752550934.3628595,1.286967,1.669764,0
1752550934.3628595,1.270854,1.67621,0
1752550934.3638268,1.321611,1.679432,0
1752550934.3638268,1.364312,1.680238,0
1752550934.3638268,1.406207,1.680238,0
1752550934.3638268,1.440851,1.685072,0
1752550934.364855,1.473935,1.685072,0
1752550934.3737988,1.513413,1.682655,0
1752550934.375825,1.536777,1.679432,0
1752550934.3778224,1.556919,1.674598,0
1752550934.3848016,1.563365,1.673793,0
1752550934.3867977,1.581089,1.66493,0
1752550934.393779,1.606871,1.652845,0
1752550934.3957388,1.610094,1.644738,0
1752550934.3977664,1.579478,1.638293,0
1752550934.4007595,1.532749,1.634264,0
1752550934.4017582,1.477157,1.638293,0
1752550934.4017582,1.412653,1.644738,0
1752550934.4017582,1.350616,1.652845,0
1752550934.4017582,1.312749,1.666541,0
1752550934.4017582,1.282939,1.677015,0
1752550934.402753,1.274076,1.682655,0
1752550934.402753,1.321611,1.685072,0
1752550934.402753,1.364312,1.690712,0
1752550934.402753,1.408624,1.6891,0
1752550934.402753,1.443269,1.683461,0
1752550934.40375,1.471517,1.683461,0
1752550934.40375,1.513413,1.674598,0
1752550934.40375,1.538389,1.672181,0
1752550934.40375,1.556113,1.673793,0
1752550934.4047532,1.563365,1.668959,0
1752550934.4047532,1.580284,1.66493,0
1752550934.4047532,1.612511,1.655262,0
1752550934.4147243,1.616539,1.639904,0
1752550934.4177158,1.584312,1.631041,0
1752550934.4246967,1.524692,1.627819,0
1752550934.426689,1.464266,1.631847,0
1752550934.4336417,1.404596,1.638293,0
1752550934.4346375,1.341753,1.644738,0
1752550934.4376624,1.301469,1.656873,0
1752550934.4396567,1.282133,1.667347,0
1752550934.4426472,1.281327,1.672181,0
1752550934.4426472,1.332085,1.674598,0
1752550934.4426472,1.373175,1.683461,0
1752550934.4426472,1.408624,1.693129,0
1752550934.4426472,1.443269,1.70038,0
1752550934.4436467,1.470712,1.698769,0
1752550934.4436467,1.510996,1.690712,0
1752550934.4436467,1.537583,1.686683,0
1752550934.4436467,1.554502,1.680238,0
1752550934.4436467,1.569004,1.677015,0
1752550934.4446464,1.589146,1.667347,0
1752550934.4446464,1.618151,1.653651,0
1752550934.4446464,1.613317,1.642321,0
1752550934.4446464,1.580284,1.631847,0
1752550934.4456387,1.530332,1.632653,0
1752550934.4456387,1.471517,1.639098,0
1752550934.4456387,1.407013,1.645544,0
1752550934.4555788,1.315166,1.663319,0
1752550934.4575746,1.277299,1.678627,0
1752550934.4645553,1.277299,1.684266,0
1752550934.4655542,1.328862,1.686683,0
1752550934.4685452,1.370758,1.686683,0
1752550934.4765236,1.406207,1.687489,0
1752550934.4775207,1.445736,1.685878,0
1752550934.4805133,1.479574,1.684266,0
1752550934.4835055,1.51583,1.679432,0
1752550934.484503,1.541611,1.677015,0
1752550934.484503,1.556919,1.67621,0
1752550934.484503,1.566587,1.673793,0
1752550934.484503,1.584312,1.660096,0
1752550934.484503,1.606871,1.645544,0
1752550934.4854999,1.606871,1.635875,0
1752550934.4854999,1.577061,1.637487,0
1752550934.4854999,1.527109,1.635875,0
1752550934.4854999,1.470712,1.638293,0
1752550934.4854999,1.407013,1.644738,0
1752550934.4864964,1.349004,1.651234,0
1752550934.4864964,1.311138,1.65929,0
1752550934.4864964,1.280522,1.677015,0
1752550934.4864964,1.278105,1.681044,0
1752550934.487494,1.328862,1.682655,0
1752550934.487494,1.373175,1.686683,0
1752550934.487494,1.405402,1.687489,0
1752550934.487494,1.437629,1.692323,0
1752550934.4984646,1.473935,1.691518,0
1752550934.5004601,1.510996,1.684266,0
1752550934.5074406,1.537583,1.677015,0
1752550934.5094352,1.55853,1.67057,0
1752550934.5184119,1.567393,1.665736,0
1752550934.5194087,1.589146,1.652845,0
1752550934.5224013,1.614928,1.639904,0
1752550934.5243955,1.607677,1.636681,0
1752550934.5253925,1.580284,1.633458,0
1752550934.52639,1.530332,1.634264,0
1752550934.52639,1.476351,1.632653,0
1752550934.52639,1.400568,1.639098,0
1752550934.52639,1.339336,1.653651,0
1752550934.52639,1.300664,1.66493,0
1752550934.5273874,1.276493,1.672181,0
1752550934.5273874,1.279716,1.67621,0
1752550934.5273874,1.334502,1.677821,0
1752550934.5273874,1.374786,1.680238,0
1752550934.5273874,1.411847,1.682655,0
1752550934.5283847,1.447347,1.681849,0
1752550934.5283847,1.478769,1.681044,0
1752550934.5283847,1.513413,1.67621,0
1752550934.5283847,1.540806,1.671376,0
1752550934.5293822,1.55853,1.668153,0
1752550934.5293822,1.573033,1.66493,0
1752550934.5373616,1.589952,1.651234,0
1752550934.5403526,1.609288,1.641515,0
1752550934.5423472,1.60526,1.635875,0
1752550934.5493295,1.573838,1.63507,0
1752550934.5513232,1.523886,1.63507,0
1752550934.5563097,1.460238,1.638293,0
1752550934.5602996,1.38526,1.647155,0
1752550934.5622938,1.335308,1.658485,0
1752550934.5652857,1.307109,1.661707,0
1752550934.56728,1.278105,1.672987,0
1752550934.5682788,1.278105,1.683461,0
1752550934.5682788,1.340948,1.680238,0
1752550934.5682788,1.375592,1.678627,0
1752550934.5682788,1.407819,1.685878,0
1752550934.5682788,1.446542,1.684266,0
1752550934.5692756,1.482797,1.681849,0
1752550934.5692756,1.518247,1.674598,0
1752550934.5692756,1.543223,1.67621,0
1752550934.5692756,1.55853,1.674598,0
1752550934.5702724,1.567393,1.671376,0
1752550934.5702724,1.586729,1.66493,0
1752550934.5702724,1.612511,1.65929,0
1752550934.5702724,1.602843,1.650428,0
1752550934.5712702,1.576255,1.644738,0
1752550934.5712702,1.525498,1.640709,0
1752550934.5712702,1.471517,1.637487,0
1752550934.5822413,1.402179,1.644738,0
1752550934.5842354,1.34417,1.654456,0
1752550934.5912163,1.307109,1.656873,0
1752550934.594208,1.281327,1.668153,0
1752550934.6011903,1.282939,1.677821,0
1752550934.6021876,1.337725,1.678627,0
1752550934.6041825,1.37398,1.685072,0
1752550934.608171,1.411041,1.687489,0
1752550934.6091678,1.442463,1.681044,0
1752550934.6091678,1.476351,1.681044,0
1752550934.6091678,1.513413,1.680238,0
1752550934.6091678,1.540806,1.677015,0
1752550934.6101663,1.556113,1.673793,0
1752550934.6101663,1.566587,1.668153,0
1752550934.6101663,1.589146,1.660096,0
1752550934.6101663,1.609288,1.652845,0
1752550934.6111631,1.602843,1.639904,0
1752550934.6111631,1.57545,1.633458,0
1752550934.6111631,1.523081,1.631847,0
1752550934.6111631,1.467489,1.638293,0
1752550934.6111631,1.395734,1.650428,0
1752550934.6121604,1.343365,1.656873,0
1752550934.6121604,1.307109,1.66493,0
1752550934.6121604,1.283744,1.674598,0
1752550934.622134,1.279716,1.685072,0
1752550934.6241288,1.332891,1.691518,0
1752550934.626123,1.37962,1.696352,0
1752550934.6331043,1.419098,1.697963,0
1752550934.6360972,1.445736,1.699574,0
1752550934.643078,1.473935,1.696352,0
1752550934.6450725,1.508579,1.689906,0
1752550934.6480646,1.529526,1.687489,0
1752550934.6500597,1.566587,1.673793,0
1752550934.6510575,1.568199,1.663319,0
1752550934.6510575,1.587535,1.652039,0
1752550934.6510575,1.607677,1.641515,0
1752550934.6520538,1.602843,1.637487,0
1752550934.6520538,1.564976,1.636681,0
1752550934.6520538,1.506967,1.639904,0
1752550934.653051,1.459432,1.641515,0
1752550934.653051,1.389288,1.653651,0
1752550934.653051,1.34417,1.660096,0
1752550934.654049,1.309526,1.668153,0
1752550934.654049,1.279716,1.677015,0
1752550934.654049,1.285356,1.677015,0
1752550934.655046,1.340948,1.677821,0
1752550934.655046,1.378009,1.683461,0
1752550934.655046,1.416681,1.685878,0
1752550934.6560435,1.452987,1.689906,0
1752550934.6560435,1.481991,1.689906,0
1752550934.6560435,1.519858,1.683461,0
1752550934.6560435,1.542417,1.681044,0
1752550934.6570406,1.55853,1.67621,0
1752550934.6570406,1.569004,1.672987,0
1752550934.6570406,1.593175,1.665736,0
1752550934.6680129,1.611705,1.652039,0
1752550934.671003,1.603648,1.643932,0
1752550934.6789834,1.569004,1.637487,0
1752550934.6839683,1.515024,1.638293,0
1752550934.6899526,1.465072,1.643932,0
1752550934.691947,1.397345,1.645544,0
1752550934.694939,1.343365,1.652039,0
1752550934.6969337,1.302275,1.667347,0
1752550934.6969337,1.276493,1.684266,0
1752550934.6969337,1.283744,1.689906,0
1752550934.6979315,1.338531,1.690712,0
1752550934.6979315,1.376397,1.693935,0
1752550934.6979315,1.416681,1.693935,0
1752550934.6979315,1.452181,1.691518,0
1752550934.6979315,1.478769,1.692323,0
1752550934.6989293,1.51583,1.689906,0
1752550934.6989293,1.540806,1.684266,0
1752550934.6989293,1.568199,1.674598,0
1752550934.6989293,1.568199,1.669764,0
1752550934.6999269,1.589146,1.658485,0
1752550934.6999269,1.613317,1.643932,0
1752550934.6999269,1.606871,1.643932,0
1752550934.7009234,1.57545,1.637487,0
1752550934.7009234,1.51583,1.637487,0
1752550934.7069068,1.454598,1.640709,0
1752550934.710897,1.384454,1.652039,0
1752550934.712926,1.328862,1.66493,0
1752550934.7198722,1.29583,1.673793,0
1752550934.7228642,1.278911,1.682655,0
1752550934.7298458,1.291801,1.690712,0
1752550934.730843,1.330474,1.690712,0
1752550934.734832,1.369952,1.6891,0
1752550934.7378242,1.562559,1.666541,0
1752550934.738822,1.569004,1.662513,0
1752550934.738822,1.598009,1.654456,0
1752550934.738822,1.614928,1.647155,0
1752550934.739819,1.59962,1.643126,0
1752550934.739819,1.571421,1.638293,0
1752550934.739819,1.516635,1.639098,0
1752550934.739819,1.461849,1.642321,0
1752550934.740817,1.389288,1.652039,0
1752550934.740817,1.343365,1.662513,0
1752550934.740817,1.306304,1.672987,0
1752550934.740817,1.280522,1.680238,0
1752550934.740817,1.291801,1.687489,0
1752550934.7418134,1.344976,1.688295,0
1752550934.7418134,1.381231,1.687489,0
1752550934.7418134,1.417487,1.685878,0
1752550934.7418134,1.453793,1.687489,0
1752550934.7428114,1.485214,1.688295,0
1752550934.7517877,1.519052,1.6891,0
1752550934.7547798,1.539194,1.680238,0
1752550934.756809,1.556919,1.673793,0
1752550934.7637928,1.563365,1.664124,0
1752550934.7657514,1.594786,1.654456,0
1752550934.7727308,1.610899,1.643932,0
1752550934.7747262,1.59962,1.639904,0
1752550934.776721,1.567393,1.640709,0
1752550934.7797122,1.512607,1.643932,0
1752550934.7807093,1.457821,1.643126,0
1752550934.7807093,1.34981,1.689906,0
1752550934.7807093,1.391705,1.689906,0
1752550934.7807093,1.436017,1.690712,0
1752550934.7807093,1.469906,1.692323,0
1752550934.7817063,1.506162,1.689906,0
1752550934.7817063,1.535972,1.685878,0
1752550934.7817063,1.548057,1.680238,0
1752550934.7817063,1.561753,1.680238,0
1752550934.7817063,1.57545,1.67057,0
1752550934.7827373,1.607677,1.658485,0
1752550934.7827373,1.614928,1.645544,0
1752550934.7827373,1.587535,1.638293,0
1752550934.7827373,1.549668,1.640709,0
1752550934.783701,1.486825,1.643126,0
1752550934.783701,1.428766,1.645544,0
1752550934.784699,1.358672,1.651234,0
1752550934.795702,1.321611,1.656873,0
1752550934.7976997,1.291801,1.667347,0
1752550934.805643,1.271659,1.677821,0
1752550934.8096323,1.315166,1.680238,0
1752550934.8146193,1.362701,1.679432,0
1752550934.8166153,1.395734,1.679432,0
1752550934.8196056,1.434406,1.685072,0
1752550934.8216,1.467489,1.686683,0
1752550934.8216,1.506162,1.681044,0
1752550934.8225977,1.535166,1.677015,0
1752550934.8225977,1.55128,1.673793,0
1752550934.8225977,1.557725,1.674598,0
1752550934.8225977,1.571421,1.667347,0
1752550934.8235955,1.602037,1.654456,0
1752550934.8235955,1.613317,1.646349,0
1752550934.8235955,1.582701,1.63507,0
1752550934.8235955,1.548057,1.62943,0
1752550934.8235955,1.491659,1.631847,0
1752550934.8245933,1.431989,1.637487,0
1752550934.8245933,1.358672,1.652039,0
1752550934.8245933,1.315166,1.665736,0
1752550934.8245933,1.286967,1.677821,0
1752550934.8255894,1.271659,1.685072,0
1752550934.8255894,1.315971,1.682655,0
1752550934.8255894,1.361089,1.681044,0
1752550934.8365607,1.394928,1.685878,0
1752550934.838555,1.437629,1.687489,0
1752550934.8455362,1.465878,1.685878,0
1752550934.8475308,1.499716,1.688295,0
1752550934.8555095,1.532749,1.686683,0
1752550934.8585024,1.553697,1.686683,0
1752550934.860529,1.56417,1.685878,0
1752550934.8624914,1.578672,1.680238,0
1752550934.8635206,1.606066,1.667347,0
1752550934.8635206,1.614928,1.647155,0
1752550934.8635206,1.585924,1.633458,0
1752550934.8635206,1.547251,1.633458,0
1752550934.8635206,1.487631,1.633458,0
1752550934.8645205,1.431989,1.63507,0
1752550934.8645205,1.357867,1.642321,0
1752550934.8645205,1.317583,1.652845,0
1752550934.8645205,1.29019,1.669764,0
1752550934.8654842,1.273271,1.688295,0
1752550934.8654842,1.32,1.690712,0
1752550934.8654842,1.356255,1.696352,0
1752550934.8654842,1.394122,1.695546,0
1752550934.8664823,1.432795,1.695546,0
1752550934.8664823,1.461044,1.696352,0
1752550934.8664823,1.502133,1.687489,0
1752550934.8664823,1.531138,1.683461,0
1752550934.8674774,1.548057,1.672181,0
1752550934.876485,1.563365,1.67057,0
1752550934.879481,1.577867,1.668153,0
1752550934.8864272,1.60526,1.660096,0
1752550934.8884208,1.612511,1.651234,0
1752550934.896401,1.584312,1.640709,0
1752550934.8973982,1.547251,1.634264,0
1752550934.9003894,1.490854,1.633458,0
1752550934.9033818,1.426349,1.640709,0
1752550934.9043791,1.356255,1.647155,0
1752550934.9053764,1.32,1.65929,0
1752550934.9053764,1.289384,1.671376,0
1752550934.9053764,1.271659,1.673793,0
1752550934.9053764,1.317583,1.677015,0
1752550934.9053764,1.360284,1.684266,0
1752550934.9063733,1.399762,1.692323,0
1752550934.9063733,1.434406,1.693935,0
1752550934.9063733,1.466683,1.693935,0
1752550934.9063733,1.503745,1.689906,0
1752550934.9063733,1.53436,1.691518,0
1752550934.9073708,1.548862,1.6891,0
1752550934.9073708,1.563365,1.681044,0
1752550934.9073708,1.583507,1.67057,0
1752550934.9073708,1.609288,1.660096,0
1752550934.908368,1.610094,1.652039,0
1752550934.908368,1.584312,1.644738,0
1752550934.908368,1.542417,1.644738,0
1752550934.9193394,1.478769,1.646349,0
1752550934.9213333,1.42071,1.656068,0
1752550934.9283147,1.353838,1.663319,0
1752550934.9303093,1.318389,1.672181,0
1752550934.932304,1.283744,1.678627,0
1752550934.939318,1.270048,1.685072,0
1752550934.9413123,1.324028,1.684266,0
1752550934.9433067,1.365118,1.678627,0
1752550934.9453013,1.397345,1.679432,0
