timestamp,v1,v2,label
1752551079,1.419904,1.788199,2
1752551079,1.392511,1.693129,2
1752551079,1.402985,1.653651,2
1752551079,1.423127,1.654456,2
1752551079,1.44493,1.686683,2
1752551079,1.469906,1.696352,2
1752551079,1.479574,1.693129,2
1752551079,1.496493,1.672181,2
1752551079,1.479574,1.622179,2
1752551079,1.461044,1.490048,2
1752551079,1.445736,1.457821,2
1752551079,1.458627,1.530332,2
1752551079,1.435212,1.638293,2
1752551079,1.437629,1.714882,2
1752551079,1.440851,1.73583,2
1752551079,1.43924,1.791421,2
1752551079,1.427155,1.835734,2
1752551079,1.431183,1.852653,2
1752551079,1.453793,1.813175,2
1752551079,1.465878,1.745498,2
1752551079,1.477963,1.640709,2
1752551079,1.469906,1.601231,2
1752551079,1.473935,1.548057,2
1752551079,1.467489,1.522275,2
1752551079,1.459432,1.539194,2
1752551079,1.455404,1.571421,2
1752551079,1.465878,1.576255,2
1752551079,1.473129,1.582701,2
1752551079,1.477963,1.604454,2
1752551079,1.516635,1.636681,2
1752551079,1.503745,1.667347,2
1752551079,1.458627,1.691518,2
1752551079,1.497299,1.692323,2
1752551079,1.526303,1.672987,2
1752551079,1.507773,1.661707,2
1752551079,1.467489,1.668153,2
1752551079,1.432795,1.681044,2
1752551079,1.424738,1.712465,2
1752551079,1.418293,1.764028,2
1752551079,1.43924,1.797061,2
1752551079,1.447347,1.743886,2
1752551079,1.422321,1.677821,2
1752551079,1.410236,1.641515,2
1752551079,1.428766,1.687489,2
1752551079,1.459432,1.703603,2
1752551079,1.442463,1.703603,2
1752551079,1.448153,1.691518,2
1752551079,1.481991,1.683461,2
1752551079,1.498105,1.663319,2
1752551079,1.476351,1.619762,2
1752551079,1.461849,1.607677,2
1752551079,1.489242,1.637487,2
1752551079,1.494076,1.677015,2
1752551079,1.481991,1.690712,2
1752551079,1.457015,1.652845,2
1752551079,1.468295,1.589146,2
1752551079,1.467489,1.583507,2
1752551079,1.47474,1.589146,2
1752551079,1.445736,1.612511,2
1752551079,1.435212,1.710854,2
1752551079,1.472323,1.777725,2
1752551079,1.443269,1.755972,2
1752551079,1.457821,1.753554,2
1752551079,1.470712,1.70038,2
1752551079,1.448958,1.657679,2
1752551079,1.444124,1.627013,2
1752551079,1.45057,1.564976,2
1752551079,1.444124,1.610094,2
1752551079,1.43924,1.688295,2
1752551079,1.422321,1.753554,2
1752551079,1.421515,1.727773,2
1752551079,1.441657,1.734218,2
1752551079,1.483603,1.73583,2
1752551079,1.498105,1.703603,2
1752551079,1.505356,1.645544,2
1752551079,1.489242,1.574644,2
1752551079,1.477963,1.498105,2
1752551079,1.539194,1.516635,2
1752551079,1.524692,1.586729,2
1752551079,1.526303,1.644738,2
1752551079,1.487631,1.705214,2
1752551079,1.415875,1.761611,2
1752551079,1.394122,1.76564,2
1752551079,1.362701,1.738247,2
1752551079,1.348199,1.734218,2
1752551079,1.361895,1.711659,2
1752551079,1.399762,1.660902,2
1752551079,1.436017,1.626207,2
1752551079,1.471517,1.607677,2
1752551079,1.499716,1.593175,2
1752551079,1.500522,1.606066,2
1752551079,1.493271,1.614928,2
1752551079,1.508579,1.62379,2
1752551079,1.531138,1.627013,2
1752551079,1.515024,1.622985,2
1752551079,1.510996,1.616539,2
1752551079,1.508579,1.620568,2
1752551079,1.518247,1.631041,2
1752551079,1.465072,1.643932,2
1752551079,1.457015,1.65929,2
1752551079,1.40943,1.683461,2
1752551079,1.371563,1.739858,2
1752551079,1.37398,1.722939,2
1752551079,1.374786,1.682655,2
1752551079,1.438434,1.661707,2
1752551079,1.454598,1.691518,2
1752551079,1.464266,1.781753,2
1752551079,1.485214,1.868817,2
1752551079,1.485214,1.872845,2
1752551079,1.492465,1.802701,2
1752551079,1.500522,1.673793,2
1752551079,1.498911,1.542417,2
1752551079,1.494076,1.51583,2
1752551079,1.471517,1.54564,2
1752551079,1.485214,1.547251,2
1752551079,1.485214,1.555308,2
1752551079,1.465878,1.581089,2
1752551079,1.476351,1.602843,2
1752551079,1.422321,1.614928,2
1752551079,1.414264,1.667347,2
1752551079,1.40943,1.718105,2
1752551079,1.437629,1.685072,2
1752551079,1.446542,1.674598,2
1752551079,1.427155,1.710854,2
1752551079,1.392511,1.747915,2
1752551079,1.386871,1.756777,2
1752551079,1.426349,1.746304,2
1752551079,1.481186,1.727773,2
1752551079,1.556113,1.729384,2
1752551079,1.577061,1.758389,2
1752551079,1.555308,1.770474,2
1752551079,1.590758,1.6891,2
1752551079,1.571421,1.653651,2
1752551079,1.493271,1.644738,2
1752551079,1.415875,1.666541,2
1752551079,1.390094,1.685072,2
1752551079,1.382037,1.701991,2
1752551079,1.358672,1.697157,2
1752551079,1.373175,1.656068,2
1752551079,1.383648,1.598814,2
1752551079,1.382843,1.531138,2
1752551079,1.423127,1.544028,2
1752551079,1.467489,1.585924,2
1752551079,1.493271,1.618956,2
1752551079,1.495688,1.641515,2
1752551079,1.494076,1.657679,2
1752551079,1.48602,1.666541,2
1752551079,1.476351,1.665736,2
1752551079,1.479574,1.656873,2
1752551079,1.485214,1.656068,2
1752551079,1.492465,1.660902,2
1752551079,1.513413,1.699574,2
1752551079,1.538389,1.747915,2
1752551079,1.537583,1.744692,2
1752551079,1.51583,1.6891,2
1752551079,1.488437,1.699574,2
1752551079,1.463461,1.723745,2
1752551079,1.427155,1.72455,2
1752551079,1.414264,1.712465,2
1752551079,1.373175,1.678627,2
1752551079,1.360284,1.627013,2
1752551079,1.37398,1.595592,2
1752551079,1.386065,1.585924,2
1752551079,1.437629,1.610094,2
1752551079,1.487631,1.66493,2
1752551079,1.489242,1.716494,2
1752551079,1.492465,1.734218,2
1752551079,1.506162,1.651234,2
1752551079,1.470712,1.581895,2
1752551079,1.428766,1.606066,2
1752551079,1.423127,1.637487,2
1752551079,1.473129,1.643932,2
1752551079,1.521469,1.627013,2
1752551079,1.527915,1.62379,2
1752551079,1.549668,1.622179,2
1752551079,1.527915,1.62943,2
1752551079,1.494076,1.646349,2
1752551079,1.431183,1.656873,2
1752551079,1.394928,1.669764,2
1752551079,1.371563,1.690712,2
1752551079,1.350616,1.706825,2
1752551079,1.363507,1.713271,2
1752551079,1.3909,1.712465,2
1752551079,1.42071,1.701991,2
1752551079,1.440046,1.677821,2
1752551079,1.445736,1.663319,2
1752551079,1.481186,1.667347,2
1752551079,1.503745,1.680238,2
1752551079,1.517441,1.696352,2
1752551079,1.524692,1.705214,2
1752551079,1.529526,1.693935,2
1752551079,1.550474,1.669764,2
1752551079,1.56981,1.626207,2
1752551079,1.56981,1.602843,2
1752551079,1.586729,1.59962,2
1752551079,1.518247,1.625402,2
1752551079,1.43924,1.679432,2
1752551079,1.390094,1.735024,2
1752551079,1.340948,1.768862,2
1752551079,1.28455,1.75436,2
1752551079,1.289384,1.714882,2
1752551079,1.384454,1.669764,2
1752551079,1.419098,1.664124,2
1752551079,1.446542,1.710048,2
1752551079,1.492465,1.680238,2
1752551079,1.484408,1.620568,2
1752551079,1.513413,1.636681,2
1752551079,1.519052,1.656873,2
1752551079,1.465878,1.690712,2
1752551079,1.424738,1.696352,2
1752551079,1.431989,1.625402,2
1752551079,1.48602,1.616539,2
1752551079,1.516635,1.622985,2
1752551079,1.526303,1.631041,2
1752551079,1.544834,1.644738,2
1752551079,1.51583,1.657679,2
1752551079,1.482797,1.672181,2
1752551079,1.45057,1.71891,2
1752551079,1.426349,1.755972,2
1752551079,1.367535,1.763223,2
1752551079,1.332891,1.728579,2
1752551079,1.356255,1.674598,2
1752551079,1.386871,1.602037,2
1752551079,1.427155,1.562559,2
1752551079,1.432795,1.618956,2
1752551079,1.463461,1.679432,2
1752551079,1.50455,1.704408,2
1752551079,1.527915,1.696352,2
1752551079,1.536777,1.660096,2
1752551079,1.503745,1.618151,2
1752551079,1.535972,1.581089,2
1752551079,1.564976,1.606871,2
1752551079,1.560948,1.661707,2
1752551079,1.602843,1.690712,2
1752551079,1.56417,1.701991,2
1752551079,1.478769,1.737441,2
1752551079,1.448153,1.721327,2
1752551079,1.412653,1.567393,2
1752551079,1.36834,1.538389,2
1752551079,1.343365,1.614928,2
1752551079,1.306304,1.639904,2
1752551079,1.302275,1.652845,2
1752551079,1.316777,1.678627,2
1752551079,1.336919,1.695546,2
1752551079,1.396539,1.691518,2
1752551079,1.434406,1.677821,2
1752551079,1.48602,1.672987,2
1752551079,1.519858,1.682655,2
1752551079,1.548862,1.685072,2
1752551079,1.543223,1.682655,2
1752551079,1.448153,1.645544,2
1752551079,1.376397,1.73583,2
1752551079,1.316777,1.71891,2
1752551079,1.319194,1.741469,2
1752551079,1.321611,1.770474,2
1752551079,1.3909,1.767251,2
1752551079,1.440851,1.740664,2
1752551079,1.477157,1.711659,2
1752551079,1.482797,1.715688,2
1752551079,1.497299,1.72455,2
1752551079,1.521469,1.745498,2
1752551079,1.515024,1.751137,2
1752551079,1.502939,1.747109,2
1752551079,1.491659,1.638293,2
1752551079,1.536777,1.552085,2
1752551079,1.560948,1.536777,2
1752551079,1.56417,1.53436,2
1752551079,1.552085,1.610899,2
1752551079,1.531138,1.698769,2
1752551079,1.542417,1.685878,2
1752551079,1.502939,1.601231,2
1752551079,1.443269,1.601231,2
1752551079,1.357061,1.610899,2
1752551079,1.281327,1.614122,2
1752551079,1.287773,1.610094,2
1752551079,1.312749,1.652845,2
1752551079,1.36834,1.690712,2
1752551079,1.437629,1.751137,2
1752551079,1.461849,1.764834,2
1752551079,1.465072,1.70602,2
1752551079,1.485214,1.708437,2
1752551080,1.485214,1.734218,2
1752551080,1.455404,1.763223,2
1752551080,1.448958,1.743081,2
1752551080,1.503745,1.727773,2
1752551080,1.577867,1.717299,2
1752551080,1.607677,1.715688,2
1752551080,1.589146,1.701186,2
1752551080,1.535166,1.677821,2
1752551080,1.477963,1.641515,2
1752551080,1.424738,1.642321,2
1752551080,1.402179,1.613317,2
1752551080,1.381231,1.561753,2
1752551080,1.360284,1.560948,2
1752551080,1.373175,1.574644,2
1752551080,1.406207,1.593175,2
1752551080,1.461849,1.606066,2
1752551080,1.440851,1.62943,2
1752551080,1.424738,1.647155,2
1752551080,1.411041,1.663319,2
1752551080,1.416681,1.66493,2
1752551080,1.566587,1.917157,2
1752551080,1.523081,1.742275,2
1752551080,1.494076,1.581089,2
1752551080,1.453793,1.473129,2
1752551080,1.40379,1.452181,2
1752551080,1.347393,1.491659,2
1752551080,1.309526,1.556919,2
1752551080,1.365118,1.609288,2
1752551080,1.40379,1.666541,2
1752551080,1.386871,1.714076,2
1752551080,1.36834,1.716494,2
1752551080,1.407013,1.693129,2
1752551080,1.48038,1.695546,2
1752551080,1.498911,1.695546,2
1752551080,1.4691,1.713271,2
1752551080,1.487631,1.698769,2
1752551080,1.491659,1.664124,2
1752551080,1.529526,1.678627,2
1752551080,1.606871,1.697157,2
1752551080,1.611705,1.698769,2
1752551080,1.579478,1.701991,2
1752551080,1.537583,1.658485,2
1752551080,1.490854,1.570616,2
1752551080,1.424738,1.581089,2
1752551080,1.367535,1.624596,2
1752551080,1.353033,1.618151,2
1752551080,1.328057,1.651234,2
1752551080,1.318389,1.699574,2
1752551080,1.334502,1.763223,2
1752551080,1.369952,1.802701,2
1752551080,1.406207,1.804312,2
1752551080,1.447347,1.792227,2
1752551080,1.520664,1.760806,2
1752551080,1.535972,1.636681,2
1752551080,1.519858,1.566587,2
1752551080,1.518247,1.522275,2
1752551080,1.505356,1.53436,2
1752551080,1.535166,1.570616,2
1752551080,1.582701,1.609288,2
1752551080,1.654456,1.645544,2
1752551080,1.626207,1.710048,2
1752551080,1.552085,1.772891,2
1752551080,1.483603,1.705214,2
1752551080,1.390094,1.634264,2
1752551080,1.318389,1.596397,2
1752551080,1.270048,1.594786,2
1752551080,1.267631,1.60526,2
1752551080,1.293413,1.597203,2
1752551080,1.338531,1.638293,2
1752551080,1.413458,1.687489,2
1752551080,1.459432,1.698769,2
1752551080,1.465878,1.722939,2
1752551080,1.542417,1.745498,2
1752551080,1.524692,1.749526,2
1752551080,1.519052,1.731801,2
1752551080,1.506162,1.70038,2
1752551080,1.523886,1.641515,2
1752551080,1.479574,1.581089,2
1752551080,1.460238,1.571421,2
1752551080,1.538389,1.610094,2
1752551080,1.581895,1.62943,2
1752551080,1.554502,1.643126,2
1752551080,1.482797,1.70602,2
1752551080,1.421515,1.709242,2
1752551080,1.364312,1.693129,2
1752551080,1.345782,1.780142,2
1752551080,1.349004,1.832511,2
1752551080,1.392511,1.811563,2
1752551080,1.424738,1.745498,2
1752551080,1.478769,1.646349,2
1752551080,1.487631,1.492465,2
1752551080,1.473129,1.447347,2
1752551080,1.428766,1.523081,2
1752551080,1.413458,1.601231,2
1752551080,1.429572,1.650428,2
1752551080,1.434406,1.671376,2
1752551080,1.454598,1.661707,2
1752551080,1.50455,1.638293,2
1752551080,1.527915,1.614928,2
1752551080,1.573838,1.626207,2
1752551080,1.632653,1.654456,2
1752551080,1.607677,1.70038,2
1752551080,1.55853,1.698769,2
1752551080,1.506967,1.71891,2
1752551080,1.452987,1.755166,2
1752551080,1.373175,1.70602,2
1752551080,1.318389,1.647961,2
1752551080,1.282939,1.697157,2
1752551080,1.303081,1.717299,2
1752551080,1.327251,1.693129,2
1752551080,1.382843,1.655262,2
1752551080,1.432795,1.63507,2
1752551080,1.473935,1.652039,2
1752551080,1.513413,1.669764,2
1752551080,1.527915,1.695546,2
1752551080,1.547251,1.706825,2
1752551080,1.552085,1.727773,2
1752551080,1.53436,1.716494,2
1752551080,1.505356,1.684266,2
1752551080,1.496493,1.685878,2
1752551080,1.506162,1.677821,2
1752551080,1.499716,1.632653,2
1752551080,1.502939,1.524692,2
1752551080,1.471517,1.495688,2
1752551080,1.446542,1.531138,2
1752551080,1.421515,1.556919,2
1752551080,1.380426,1.611705,2
1752551080,1.373175,1.684266,2
1752551080,1.394122,1.732607,2
1752551080,1.382843,1.737441,2
1752551080,1.375592,1.72455,2
1752551080,1.394928,1.708437,2
1752551080,1.449764,1.696352,2
1752551080,1.50455,1.715688,2
1752551080,1.502133,1.751943,2
1752551080,1.512607,1.769668,2
1752551080,1.542417,1.706825,2
1752551080,1.532749,1.652845,2
1752551080,1.521469,1.644738,2
1752551080,1.490048,1.665736,2
1752551080,1.455404,1.691518,2
1752551080,1.447347,1.741469,2
1752551080,1.458627,1.75436,2
1752551080,1.482797,1.698769,2
1752551080,1.469906,1.622985,2
1752551080,1.421515,1.576255,2
1752551080,1.406207,1.594786,2
1752551080,1.422321,1.631847,2
1752551080,1.437629,1.645544,2
1752551080,1.408624,1.647961,2
1752551080,1.413458,1.651234,2
1752551080,1.443269,1.641515,2
1752551080,1.445736,1.658485,2
1752551080,1.45057,1.743886,2
1752551080,1.446542,1.82526,2
1752551080,1.478769,1.772891,2
1752551080,1.503745,1.671376,2
1752551080,1.614122,1.592369,2
1752551080,1.639098,1.56981,2
1752551080,1.620568,1.655262,2
1752551080,1.552085,1.753554,2
1752551080,1.483603,1.796255,2
1752551080,1.452987,1.708437,2
1752551080,1.380426,1.665736,2
1752551080,1.297441,1.574644,2
1752551080,1.236965,1.503745,2
1752551080,1.236965,1.523081,2
1752551080,1.31436,1.549668,2
1752551080,1.414264,1.573838,2
1752551080,1.497299,1.614122,2
1752551080,1.491659,1.65929,2
1752551080,1.498911,1.721327,2
1752551080,1.500522,1.736635,2
1752551080,1.470712,1.716494,2
1752551080,1.498911,1.682655,2
1752551080,1.490048,1.652845,2
1752551080,1.497299,1.63507,2
1752551080,1.532749,1.618956,2
1752551080,1.554502,1.612511,2
1752551080,1.52872,1.618956,2
1752551080,1.502133,1.626207,2
1752551080,1.486825,1.632653,2
1752551080,1.464266,1.642321,2
1752551080,1.43924,1.644738,2
1752551080,1.410236,1.657679,2
1752551080,1.445736,1.705214,2
1752551080,1.461849,1.761611,2
1752551080,1.446542,1.818009,2
1752551080,1.448958,1.863177,2
1752551080,1.421515,1.86076,2
1752551080,1.413458,1.789004,2
1752551080,1.402985,1.685878,2
1752551080,1.434406,1.621373,2
1752551080,1.457821,1.55853,2
1752551080,1.434406,1.500522,2
1752551080,1.4336,1.519858,2
1752551080,1.440851,1.587535,2
1752551080,1.490048,1.660902,2
1752551080,1.568199,1.677015,2
1752551080,1.552085,1.637487,2
1752551080,1.499716,1.621373,2
1752551080,1.468295,1.614928,2
1752551080,1.463461,1.596397,2
1752551080,1.470712,1.633458,2
1752551080,1.441657,1.708437,2
1752551080,1.44493,1.747109,2
1752551080,1.437629,1.685878,2
1752551080,1.428766,1.639098,2
1752551080,1.446542,1.653651,2
1752551080,1.448958,1.685878,2
1752551080,1.431989,1.761611,2
1752551080,1.421515,1.830899,2
1752551080,1.42071,1.773696,2
1752551080,1.437629,1.709242,2
1752551080,1.45057,1.702797,2
1752551080,1.427155,1.672181,2
1752551080,1.431989,1.621373,2
1752551080,1.438434,1.561753,2
1752551080,1.472323,1.586729,2
1752551080,1.51019,1.664124,2
1752551080,1.555308,1.714882,2
1752551080,1.554502,1.71891,2
1752551080,1.523886,1.683461,2
1752551080,1.506162,1.633458,2
1752551080,1.470712,1.578672,2
1752551080,1.411847,1.57545,2
1752551080,1.370758,1.555308,2
1752551080,1.410236,1.527915,2
1752551080,1.446542,1.561753,2
1752551080,1.43924,1.660902,2
1752551080,1.431183,1.756777,2
1752551080,1.432795,1.806729,2
1752551080,1.477157,1.774502,2
1752551080,1.518247,1.693129,2
1752551080,1.485214,1.627013,2
1752551080,1.452181,1.609288,2
1752551080,1.469906,1.644738,2
1752551080,1.48602,1.657679,2
1752551080,1.485214,1.653651,2
1752551080,1.506967,1.673793,2
1752551080,1.509384,1.743886,2
1752551080,1.538389,1.780142,2
1752551080,1.472323,1.725356,2
1752551080,1.412653,1.638293,2
1752551080,1.378009,1.612511,2
1752551080,1.328057,1.610094,2
1752551080,1.292607,1.62943,2
1752551080,1.369952,1.70602,2
1752551080,1.471517,1.740664,2
1752551080,1.541611,1.762417,2
1752551080,1.53436,1.789004,2
1752551080,1.506967,1.767251,2
1752551080,1.493271,1.667347,2
1752551080,1.530332,1.574644,2
1752551080,1.517441,1.572227,2
1752551080,1.468295,1.646349,2
1752551080,1.448958,1.668153,2
1752551080,1.472323,1.695546,2
1752551080,1.467489,1.715688,2
1752551080,1.441657,1.674598,2
1752551080,1.421515,1.556919,2
1752551080,1.410236,1.484408,2
1752551080,1.431183,1.536777,2
1752551080,1.448153,1.626207,2
1752551080,1.455404,1.687489,2
1752551080,1.408624,1.731801,2
1752551080,1.396539,1.73583,2
1752551080,1.441657,1.658485,2
1752551080,1.465072,1.606871,2
1752551080,1.45621,1.596397,2
1752551080,1.427155,1.586729,2
1752551080,1.43924,1.594786,2
1752551080,1.478769,1.644738,2
1752551080,1.544028,1.701991,2
1752551080,1.53436,1.722939,2
1752551080,1.505356,1.701186,2
1752551080,1.523081,1.737441,2
1752551080,1.531943,1.796255,2
1752551080,1.508579,1.887347,2
1752551080,1.47474,1.942133,2
1752551080,1.440046,1.89621,2
1752551080,1.437629,1.764028,2
1752551080,1.498911,1.600426,2
1752551080,1.468295,1.519858,2
1752551080,1.4336,1.47474,2
1752551080,1.442463,1.463461,2
1752551080,1.396539,1.497299,2
1752551080,1.36834,1.537583,2
1752551080,1.338531,1.549668,2
1752551080,1.32564,1.588341,2
1752551080,1.367535,1.618151,2
1752551080,1.407819,1.639904,2
1752551080,1.544028,1.684266,2
1752551080,1.602843,1.743081,2
1752551080,1.59398,1.767251,2
1752551080,1.510996,1.705214,2
1752551080,1.493271,1.62943,2
1752551080,1.503745,1.687489,2
1752551080,1.472323,1.747109,2
1752551080,1.452181,1.774502,2
1752551080,1.448958,1.726162,2
1752551080,1.477157,1.638293,2
1752551080,1.484408,1.608482,2
1752551080,1.463461,1.610094,2
1752551080,1.414264,1.62943,2
1752551080,1.386871,1.646349,2
1752551080,1.378009,1.660096,2
1752551080,1.394122,1.673793,2
1752551080,1.405402,1.672987,2
1752551080,1.422321,1.658485,2
1752551080,1.477157,1.650428,2
1752551080,1.487631,1.652845,2
1752551080,1.494076,1.660902,2
1752551080,1.508579,1.673793,2
1752551080,1.492465,1.669764,2
1752551080,1.486825,1.692323,2
1752551080,1.495688,1.743081,2
1752551080,1.51583,1.773696,2
1752551080,1.538389,1.78417,2
1752551080,1.506967,1.768057,2
1752551080,1.470712,1.706825,2
1752551080,1.481991,1.63507,2
1752551080,1.446542,1.560948,2
1752551080,1.406207,1.519052,2
1752551080,1.394928,1.535972,2
1752551080,1.398956,1.553697,2
1752551080,1.405402,1.610094,2
1752551080,1.424738,1.697963,2
1752551080,1.448153,1.735024,2
1752551080,1.470712,1.731801,2
1752551080,1.444124,1.705214,2
1752551080,1.434406,1.671376,2
1752551080,1.509384,1.671376,2
1752551080,1.481991,1.718105,2
1752551080,1.47474,1.731801,2
1752551080,1.50455,1.722133,2
1752551080,1.526303,1.701991,2
1752551080,1.517441,1.688295,2
1752551080,1.491659,1.67057,2
1752551080,1.460238,1.673793,2
1752551080,1.512607,1.642321,2
1752551080,1.482797,1.602843,2
1752551080,1.473129,1.600426,2
1752551080,1.42071,1.610899,2
1752551080,1.374786,1.661707,2
1752551080,1.356255,1.714882,2
1752551080,1.353838,1.751137,2
1752551080,1.374786,1.747915,2
1752551080,1.388482,1.729384,2
1752551080,1.458627,1.70602,2
1752551080,1.532749,1.661707,2
1752551080,1.564976,1.652039,2
1752551080,1.544028,1.644738,2
1752551080,1.55128,1.689906,2
1752551080,1.577867,1.679432,2
1752551080,1.486825,1.529526,2
1752551080,1.40379,1.593175,2
1752551080,1.394122,1.652039,2
1752551080,1.402179,1.687489,2
1752551080,1.406207,1.705214,2
1752551080,1.395734,1.647155,2
1752551080,1.393317,1.529526,2
1752551080,1.45621,1.506162,2
1752551080,1.473935,1.56981,2
1752551080,1.461044,1.625402,2
1752551080,1.443269,1.660096,2
1752551080,1.427155,1.677821,2
1752551080,1.440851,1.703603,2
1752551080,1.470712,1.716494,2
1752551080,1.476351,1.730996,2
1752551080,1.48602,1.745498,2
1752551080,1.502939,1.729384,2
1752551080,1.500522,1.70038,2
1752551080,1.519052,1.723745,2
1752551080,1.518247,1.729384,2
1752551080,1.460238,1.695546,2
1752551080,1.436823,1.711659,2
1752551080,1.477157,1.738247,2
1752551080,1.506162,1.737441,2
1752551080,1.512607,1.703603,2
1752551080,1.51019,1.692323,2
1752551080,1.495688,1.673793,2
1752551080,1.446542,1.617345,2
1752551080,1.408624,1.574644,2
1752551080,1.412653,1.556919,2
1752551080,1.418293,1.576255,2
1752551080,1.391705,1.574644,2
1752551080,1.401373,1.606871,2
1752551080,1.416681,1.639098,2
1752551080,1.425544,1.662513,2
1752551080,1.461849,1.6891,2
1752551080,1.495688,1.734218,2
1752551080,1.525498,1.677821,2
1752551080,1.48602,1.618956,2
1752551080,1.4691,1.635875,2
1752551080,1.419098,1.672181,2
1752551080,1.408624,1.689906,2
1752551080,1.490048,1.628624,2
1752551080,1.521469,1.612511,2
1752551080,1.515024,1.678627,2
1752551080,1.478769,1.734218,2
1752551080,1.448153,1.743081,2
1752551080,1.426349,1.767251,2
1752551080,1.390094,1.753554,2
1752551080,1.376397,1.70038,2
1752551080,1.375592,1.610094,2
1752551080,1.465878,1.554502,2
1752551080,1.481991,1.615734,2
1752551080,1.506967,1.682655,2
1752551080,1.501328,1.726162,2
1752551080,1.459432,1.755166,2
1752551080,1.414264,1.750332,2
1752551080,1.406207,1.758389,2
1752551080,1.469906,1.800284,2
1752551080,1.556113,1.812369,2
1752551080,1.620568,1.799478,2
1752551080,1.622179,1.717299,2
1752551080,1.627819,1.563365,2
1752551080,1.589952,1.384454,2
1752551080,1.517441,1.365924,2
1752551080,1.406207,1.493271,2
1752551080,1.286967,1.645544,2
1752551080,1.248295,1.71891,2
1752551080,1.276493,1.693935,2
1752551080,1.329668,1.697963,2
1752551080,1.369146,1.744692,2
1752551080,1.366729,1.744692,2
1752551080,1.405402,1.727773,2
1752551080,1.42071,1.696352,2
1752551080,1.47474,1.666541,2
1752551080,1.519052,1.650428,2
1752551080,1.531943,1.627819,2
1752551080,1.516635,1.657679,2
1752551080,1.538389,1.699574,2
1752551080,1.54564,1.726967,2
1752551080,1.523886,1.718105,2
1752551080,1.518247,1.698769,2
1752551080,1.518247,1.667347,2
1752551080,1.517441,1.650428,2
1752551080,1.51019,1.639904,2
1752551080,1.512607,1.638293,2
1752551080,1.51583,1.639904,2
1752551080,1.512607,1.652039,2
1752551080,1.607677,1.67621,2
1752551080,1.386065,1.805923,2
1752551080,1.310332,1.954218,2
1752551080,1.229714,1.937299,2
1752551080,1.203932,1.71891,2
1752551080,1.31436,1.602843,2
1752551080,1.411041,1.650428,2
1752551080,1.437629,1.693935,2
1752551080,1.404596,1.715688,2
1752551080,1.37962,1.690712,2
1752551080,1.387677,1.652845,2
1752551080,1.508579,1.602037,2
1752551080,1.59962,1.586729,2
1752551080,1.586729,1.585924,2
1752551080,1.550474,1.596397,2
1752551080,1.532749,1.614122,2
1752551080,1.519858,1.624596,2
1752551080,1.512607,1.639098,2
1752551080,1.478769,1.661707,2
1752551080,1.478769,1.692323,2
1752551080,1.482797,1.679432,2
1752551080,1.489242,1.603648,2
1752551080,1.470712,1.609288,2
1752551080,1.434406,1.67057,2
1752551080,1.405402,1.736635,2
1752551080,1.400568,1.763223,2
1752551080,1.416681,1.736635,2
1752551080,1.429572,1.672181,2
1752551080,1.452181,1.614122,2
1752551080,1.461044,1.572227,2
1752551080,1.487631,1.539194,2
1752551080,1.484408,1.626207,2
1752551080,1.503745,1.747915,2
1752551080,1.607677,1.783365,2
1752551080,1.671376,1.72455,2
1752551080,1.643932,1.712465,2
1752551080,1.540806,1.6891,2
1752551080,1.51019,1.573838,2
1752551080,1.419904,1.581089,2
1752551080,1.312749,1.725356,2
1752551080,1.274882,1.72455,2
1752551080,1.263603,1.606871,2
1752551080,1.293413,1.573838,2
1752551080,1.318389,1.607677,2
1752551080,1.295024,1.631041,2
1752551080,1.277299,1.643126,2
1752551080,1.333696,1.653651,2
1752551080,1.41507,1.66493,2
1752551080,1.479574,1.671376,2
1752551080,1.572227,1.706825,2
1752551080,1.616539,1.728579,2
1752551080,1.581895,1.717299,2
1752551080,1.567393,1.708437,2
1752551080,1.577867,1.70602,2
1752551080,1.56981,1.630236,2
1752551080,1.562559,1.548862,2
1752551080,1.535166,1.60526,2
1752551080,1.484408,1.67621,2
1752551080,1.476351,1.731801,2
1752551080,1.460238,1.736635,2
1752551080,1.452987,1.710854,2
1752551080,1.466683,1.706825,2
1752551080,1.427155,1.750332,2
1752551080,1.427961,1.745498,2
1752551080,1.519858,1.624596,2
1752551080,1.55853,1.619762,2
1752551080,1.442463,1.715688,2
1752551080,1.350616,1.70038,2
1752551080,1.300664,1.604454,2
1752551080,1.287773,1.606066,2
1752551080,1.313555,1.619762,2
1752551080,1.42071,1.661707,2
1752551080,1.517441,1.727773,2
1752551080,1.559336,1.763223,2
1752551080,1.559336,1.755166,2
1752551080,1.556919,1.613317,2
1752551080,1.508579,1.550474,2
1752551080,1.48602,1.556919,2
1752551080,1.461044,1.581895,2
1752551080,1.418293,1.595592,2
1752551080,1.373175,1.594786,2
1752551080,1.375592,1.602843,2
1752551080,1.441657,1.610094,2
1752551080,1.464266,1.642321,2
1752551080,1.454598,1.685878,2
1752551080,1.431183,1.684266,2
1752551080,1.454598,1.657679,2
1752551080,1.469906,1.671376,2
1752551080,1.483603,1.683461,2
1752551080,1.509384,1.698769,2
1752551080,1.523081,1.710854,2
1752551080,1.469906,1.730996,2
1752551080,1.476351,1.73583,2
1752551080,1.489242,1.714882,2
1752551080,1.47474,1.683461,2
1752551080,1.48602,1.660096,2
1752551080,1.547251,1.628624,2
1752551080,1.552085,1.612511,2
1752551080,1.509384,1.610094,2
1752551080,1.464266,1.618151,2
1752551080,1.422321,1.656873,2
1752551080,1.366729,1.690712,2
1752551080,1.356255,1.696352,2
1752551080,1.380426,1.667347,2
1752551080,1.407819,1.645544,2
1752551080,1.414264,1.626207,2
1752551080,1.427155,1.672987,2
1752551080,1.444124,1.666541,2
1752551080,1.531138,1.697157,2
1752551080,1.566587,1.769668,2
1752551080,1.536777,1.800284,2
1752551080,1.444124,1.814786,2
1752551080,1.427155,1.726967,2
1752551080,1.502939,1.59398,2
1752551080,1.512607,1.547251,2
1752551080,1.48038,1.606066,2
1752551080,1.459432,1.710854,2
1752551080,1.460238,1.818009,2
1752551080,1.463461,1.790616,2
1752551080,1.410236,1.682655,2
1752551080,1.402985,1.537583,2
1752551080,1.431183,1.525498,2
1752551080,1.3909,1.593175,2
1752551080,1.320806,1.638293,2
1752551080,1.352227,1.640709,2
1752551080,1.413458,1.645544,2
1752551080,1.463461,1.650428,2
1752551080,1.520664,1.651234,2
1752551080,1.519858,1.647155,2
1752551080,1.506967,1.654456,2
1752551080,1.50455,1.722939,2
1752551080,1.532749,1.751137,2
1752551080,1.552891,1.779336,2
1752551080,1.560948,1.794644,2
1752551080,1.585924,1.769668,2
1752551080,1.600426,1.69474,2
1752551080,1.637487,1.589146,2
1752551080,1.529526,1.585118,2
1752551080,1.407819,1.555308,2
1752551080,1.357061,1.483603,2
1752551080,1.342559,1.509384,2
1752551080,1.302275,1.59962,2
1752551080,1.282939,1.677821,2
1752551080,1.315166,1.740664,2
1752551080,1.353033,1.742275,2
1752551080,1.363507,1.709242,2
1752551080,1.398956,1.67621,2
1752551080,1.432795,1.657679,2
1752551080,1.440851,1.654456,2
1752551080,1.477157,1.646349,2
1752551080,1.498105,1.685072,2
1752551080,1.473935,1.717299,2
1752551080,1.488437,1.698769,2
1752551080,1.53436,1.678627,2
1752551080,1.583507,1.653651,2
1752551080,1.666541,1.634264,2
1752551080,1.679432,1.641515,2
1752551080,1.619762,1.687489,2
1752551080,1.552085,1.685072,2
1752551080,1.509384,1.621373,2
1752551080,1.413458,1.592369,2
1752551080,1.364312,1.600426,2
1752551080,1.279716,1.664124,2
1752551080,1.259574,1.716494,2
1752551080,1.264408,1.764834,2
1752551080,1.278911,1.799478,2
1752551080,1.353838,1.806729,2
1752551080,1.457015,1.729384,2
1752551080,1.477157,1.685072,2
1752551081,1.482797,1.750332,2
1752551081,1.513413,1.805118,2
1752551081,1.613317,1.838956,2
1752551081,1.674598,1.82526,2
1752551081,1.622985,1.656873,2
1752551081,1.577867,1.531138,2
1752551081,1.550474,1.482797,2
1752551081,1.53436,1.493271,2
1752551081,1.457821,1.529526,2
1752551081,1.324834,1.568199,2
1752551081,1.222463,1.577867,2
1752551081,1.263603,1.541611,2
1752551081,1.323223,1.554502,2
1752551081,1.380426,1.593175,2
1752551081,1.419098,1.632653,2
1752551081,1.460238,1.677821,2
1752551081,1.468295,1.705214,2
1752551081,1.473129,1.70602,2
1752551081,1.476351,1.709242,2
1752551081,1.463461,1.713271,2
1752551081,1.492465,1.709242,2
1752551081,1.511801,1.710048,2
1752551081,1.526303,1.723745,2
1752551081,1.538389,1.72455,2
1752551081,1.577867,1.706825,2
1752551081,1.594786,1.696352,2
1752551081,1.615734,1.702797,2
1752551081,1.598814,1.721327,2
1752551081,1.544834,1.71891,2
1752551081,1.477963,1.665736,2
1752551081,1.427961,1.598814,2
1752551081,1.362701,1.578672,2
1752551081,1.324834,1.611705,2
1752551081,1.263603,1.655262,2
1752551081,1.277299,1.632653,2
1752551081,1.405402,1.656873,2
1752551081,1.415875,1.70038,2
1752551081,1.361895,1.718105,2
1752551081,1.363507,1.715688,2
1752551081,1.441657,1.736635,2
1752551081,1.488437,1.720522,2
1752551081,1.500522,1.688295,2
1752551081,1.540806,1.669764,2
1752551081,1.587535,1.613317,2
1752551081,1.602843,1.635875,2
1752551081,1.559336,1.684266,2
1752551081,1.502133,1.683461,2
1752551081,1.451376,1.658485,2
1752551081,1.454598,1.631041,2
1752551081,1.486825,1.628624,2
1752551081,1.431183,1.632653,2
1752551081,1.373175,1.634264,2
1752551081,1.369146,1.644738,2
1752551081,1.374786,1.66493,2
1752551081,1.411847,1.67057,2
1752551081,1.431989,1.669764,2
1752551081,1.446542,1.685072,2
1752551081,1.520664,1.723745,2
1752551081,1.560948,1.705214,2
1752551081,1.547251,1.678627,2
1752551081,1.526303,1.692323,2
1752551081,1.570616,1.705214,2
1752551081,1.541611,1.734218,2
1752551081,1.490854,1.791421,2
1752551081,1.431183,1.872039,2
1752551081,1.418293,1.790616,2
1752551081,1.44493,1.590758,2
1752551081,1.421515,1.467489,2
1752551081,1.438434,1.380426,2
1752551081,1.3909,1.408624,2
1752551081,1.393317,1.519052,2
1752551081,1.383648,1.600426,2
1752551081,1.357867,1.70602,2
1752551081,1.381231,1.762417,2
1752551081,1.408624,1.764834,2
1752551081,1.42071,1.734218,2
1752551081,1.423127,1.703603,2
1752551081,1.481186,1.675404,2
1752551081,1.498105,1.660096,2
1752551081,1.48038,1.651234,2
1752551081,1.506967,1.656873,2
1752551081,1.523886,1.690712,2
1752551081,1.511801,1.734218,2
1752551081,1.502939,1.723745,2
1752551081,1.522275,1.646349,2
1752551081,1.531138,1.631041,2
1752551081,1.519052,1.62943,2
1752551081,1.494076,1.620568,2
1752551081,1.473129,1.612511,2
1752551081,1.498911,1.619762,2
1752551081,1.499716,1.63507,2
1752551081,1.477157,1.656873,2
1752551081,1.407819,1.673793,2
1752551081,1.384454,1.729384,2
1752551081,1.443269,1.771279,2
1752551081,1.405402,1.794644,2
1752551081,1.363507,1.758389,2
1752551081,1.371563,1.70602,2
1752551081,1.401373,1.678627,2
1752551081,1.413458,1.602843,2
1752551081,1.437629,1.544028,2
1752551081,1.461044,1.552085,2
1752551081,1.485214,1.602843,2
1752551081,1.535972,1.642321,2
1752551081,1.585924,1.677015,2
1752551081,1.564976,1.72455,2
1752551081,1.537583,1.763223,2
1752551081,1.515024,1.640709,2
1752551081,1.487631,1.560948,2
1752551081,1.446542,1.568199,2
1752551081,1.384454,1.585924,2
1752551081,1.307109,1.620568,2
1752551081,1.309526,1.658485,2
1752551081,1.36834,1.681849,2
1752551081,1.464266,1.712465,2
1752551081,1.519052,1.756777,2
1752551081,1.498105,1.81962,2
1752551081,1.471517,1.924408,2
1752551081,1.47474,1.95019,2
1752551081,1.568199,1.912323,2
1752551081,1.527915,1.834928,2
1752551081,1.491659,1.749526,2
1752551081,1.473935,1.608482,2
1752551081,1.491659,1.421515,2
1752551081,1.483603,1.454598,2
1752551081,1.437629,1.502939,2
1752551081,1.459432,1.548862,2
1752551081,1.489242,1.452181,2
1752551081,1.416681,1.419904,2
1752551081,1.446542,1.519858,2
1752551081,1.444124,1.632653,2
1752551081,1.365118,1.67057,2
1752551081,1.351421,1.699574,2
1752551081,1.37398,1.672987,2
1752551081,1.455404,1.586729,2
1752551081,1.481991,1.627013,2
1752551081,1.441657,1.684266,2
1752551081,1.40943,1.712465,2
1752551081,1.421515,1.755166,2
1752551081,1.457015,1.767251,2
1752551081,1.473935,1.727773,2
1752551081,1.513413,1.689906,2
1752551081,1.525498,1.66493,2
1752551081,1.538389,1.655262,2
1752551081,1.537583,1.653651,2
1752551081,1.51019,1.654456,2
1752551081,1.470712,1.65929,2
1752551081,1.470712,1.661707,2
1752551081,1.453793,1.652039,2
1752551081,1.458627,1.658485,2
1752551081,1.449764,1.672181,2
1752551081,1.452181,1.679432,2
1752551081,1.44493,1.678627,2
1752551081,1.443269,1.705214,2
1752551081,1.489242,1.73583,2
1752551081,1.495688,1.743886,2
1752551081,1.486825,1.753554,2
1752551081,1.465878,1.820426,2
1752551081,1.396539,1.799478,2
1752551081,1.426349,1.647961,2
1752551081,1.477963,1.560142,2
1752551081,1.518247,1.589952,2
1752551081,1.530332,1.614122,2
1752551081,1.523886,1.581895,2
1752551081,1.467489,1.677821,2
1752551081,1.413458,1.625402,2
1752551081,1.419904,1.540806,2
1752551081,1.40379,1.586729,2
1752551081,1.334502,1.67621,2
1752551081,1.305498,1.711659,2
1752551081,1.357867,1.672987,2
1752551081,1.402179,1.697963,2
1752551081,1.502133,1.689906,2
1752551081,1.525498,1.665736,2
1752551081,1.482797,1.723745,2
1752551081,1.459432,1.749526,2
1752551081,1.438434,1.704408,2
1752551081,1.465878,1.693129,2
1752551081,1.459432,1.687489,2
1752551081,1.465072,1.681044,2
1752551081,1.498105,1.671376,2
1752551081,1.524692,1.665736,2
1752551081,1.544028,1.667347,2
1752551081,1.540806,1.692323,2
1752551081,1.521469,1.719716,2
1752551081,1.502133,1.738247,2
1752551081,1.494882,1.751137,2
1752551081,1.521469,1.757583,2
1752551081,1.464266,1.716494,2
1752551081,1.394122,1.646349,2
1752551081,1.370758,1.589146,2
1752551081,1.394122,1.523886,2
1752551081,1.41507,1.509384,2
1752551081,1.424738,1.515024,2
1752551081,1.482797,1.532749,2
1752551081,1.484408,1.521469,2
1752551081,1.493271,1.56981,2
1752551081,1.530332,1.647961,2
1752551081,1.543223,1.715688,2
1752551081,1.499716,1.723745,2
1752551081,1.41507,1.660096,2
1752551081,1.408624,1.625402,2
1752551081,1.425544,1.6891,2
1752551081,1.440851,1.764834,2
1752551081,1.451376,1.727773,2
1752551081,1.479574,1.631847,2
1752551081,1.466683,1.725356,2
1752551081,1.454598,1.840568,2
1752551081,1.464266,1.924408,2
1752551081,1.386871,1.837345,2
1752551081,1.37398,1.785782,2
1752551081,1.398956,1.664124,2
1752551081,1.384454,1.585924,2
1752551081,1.376397,1.540806,2
1752551081,1.398151,1.524692,2
1752551081,1.399762,1.587535,2
1752551081,1.495688,1.613317,2
1752551081,1.519052,1.627819,2
1752551081,1.529526,1.618956,2
1752551081,1.522275,1.614122,2
1752551081,1.499716,1.622179,2
1752551081,1.508579,1.63507,2
1752551081,1.531943,1.679432,2
1752551081,1.55128,1.703603,2
1752551081,1.566587,1.702797,2
1752551081,1.553697,1.666541,2
1752551081,1.535972,1.650428,2
1752551081,1.47474,1.589952,2
1752551081,1.397345,1.581895,2
1752551081,1.350616,1.611705,2
1752551081,1.351421,1.685072,2
1752551081,1.34981,1.73583,2
1752551081,1.397345,1.742275,2
1752551081,1.454598,1.698769,2
1752551081,1.48602,1.652845,2
1752551081,1.460238,1.697157,2
1752551081,1.416681,1.780948,2
1752551081,1.423127,1.820426,2
1752551081,1.502939,1.805118,2
1752551081,1.493271,1.783365,2
1752551081,1.490854,1.728579,2
1752551081,1.465878,1.574644,2
1752551081,1.445736,1.56417,2
1752551081,1.445736,1.589146,2
1752551081,1.484408,1.582701,2
1752551081,1.524692,1.586729,2
1752551081,1.536777,1.586729,2
1752551081,1.506967,1.56981,2
1752551081,1.471517,1.542417,2
1752551081,1.454598,1.582701,2
1752551081,1.41507,1.612511,2
1752551081,1.423127,1.631041,2
1752551081,1.401373,1.667347,2
1752551081,1.399762,1.693129,2
1752551081,1.394928,1.702797,2
1752551081,1.41507,1.692323,2
1752551081,1.423932,1.6891,2
1752551081,1.429572,1.67057,2
1752551081,1.458627,1.652039,2
1752551081,1.464266,1.668153,2
1752551081,1.492465,1.686683,2
1752551081,1.55128,1.710854,2
1752551081,1.56981,1.733413,2
1752551081,1.521469,1.718105,2
1752551081,1.493271,1.62943,2
1752551081,1.465878,1.613317,2
1752551081,1.457821,1.631041,2
1752551081,1.427155,1.65929,2
1752551081,1.404596,1.723745,2
1752551081,1.402179,1.774502,2
1752551081,1.426349,1.796255,2
1752551081,1.477157,1.809146,2
1752551081,1.526303,1.793838,2
1752551081,1.508579,1.790616,2
1752551081,1.517441,1.78417,2
1752551081,1.523886,1.624596,2
1752551081,1.541611,1.515024,2
1752551081,1.494076,1.51019,2
1752551081,1.375592,1.527915,2
1752551081,1.332891,1.556113,2
1752551081,1.354644,1.543223,2
1752551081,1.358672,1.582701,2
1752551081,1.396539,1.638293,2
1752551081,1.431989,1.673793,2
1752551081,1.497299,1.666541,2
1752551081,1.516635,1.685878,2
1752551081,1.47474,1.735024,2
1752551081,1.492465,1.721327,2
1752551081,1.477963,1.627819,2
1752551081,1.471517,1.618956,2
1752551081,1.435212,1.63507,2
1752551081,1.48602,1.664124,2
1752551081,1.461849,1.687489,2
1752551081,1.445736,1.698769,2
1752551081,1.443269,1.70038,2
1752551081,1.441657,1.693129,2
1752551081,1.464266,1.666541,2
1752551081,1.440046,1.650428,2
1752551081,1.438434,1.631847,2
1752551081,1.443269,1.631041,2
1752551081,1.465072,1.645544,2
1752551081,1.471517,1.660902,2
1752551081,1.452987,1.671376,2
1752551081,1.499716,1.669764,2
1752551081,1.523081,1.660902,2
1752551081,1.548862,1.656873,2
1752551081,1.552891,1.782559,2
1752551081,1.531943,1.892181,2
1752551081,1.491659,1.876873,2
1752551081,1.457015,1.807535,2
1752551081,1.452987,1.70038,2
1752551081,1.392511,1.560142,2
1752551081,1.370758,1.394928,2
1752551081,1.40379,1.464266,2
1752551081,1.394122,1.627819,2
1752551081,1.464266,1.734218,2
1752551081,1.484408,1.719716,2
1752551081,1.440046,1.704408,2
1752551081,1.402179,1.708437,2
1752551081,1.40379,1.642321,2
1752551081,1.441657,1.641515,2
1752551081,1.44493,1.643126,2
1752551081,1.453793,1.637487,2
1752551081,1.512607,1.595592,2
1752551081,1.549668,1.570616,2
1752551081,1.556113,1.59962,2
1752551081,1.497299,1.619762,2
1752551081,1.43924,1.631847,2
1752551081,1.426349,1.65929,2
1752551081,1.440851,1.699574,2
1752551081,1.407819,1.67057,2
1752551081,1.421515,1.631847,2
1752551081,1.448153,1.636681,2
1752551081,1.460238,1.647155,2
1752551081,1.463461,1.703603,2
1752551081,1.431989,1.726967,2
1752551081,1.454598,1.70038,2
1752551081,1.506162,1.626207,2
1752551081,1.482797,1.643932,2
1752551081,1.4336,1.729384,2
1752551081,1.447347,1.787393,2
1752551081,1.458627,1.808341,2
1752551081,1.502133,1.785782,2
1752551081,1.568199,1.672987,2
1752551081,1.614928,1.584312,2
1752551081,1.601231,1.55853,2
1752551081,1.468295,1.613317,2
1752551081,1.437629,1.570616,2
1752551081,1.557725,1.573033,2
1752551081,1.587535,1.634264,2
1752551081,1.606871,1.778531,2
1752551081,1.544028,1.858343,2
1752551081,1.457821,1.725356,2
1752551081,1.397345,1.588341,2
1752551081,1.337725,1.664124,2
1752551081,1.307915,1.780948,2
1752551081,1.265214,1.851847,2
1752551081,1.274882,1.840568,2
1752551081,1.354644,1.768862,2
1752551081,1.544028,1.674598,2
1752551081,1.633458,1.672987,2
1752551081,1.594786,1.625402,2
1752551081,1.536777,1.529526,2
1752551081,1.486825,1.518247,2
1752551081,1.434406,1.56417,2
1752551081,1.405402,1.614122,2
1752551081,1.437629,1.626207,2
1752551081,1.498911,1.614928,2
1752551081,1.522275,1.627819,2
1752551081,1.538389,1.645544,2
1752551081,1.479574,1.677015,2
1752551081,1.43924,1.723745,2
1752551081,1.437629,1.704408,2
1752551081,1.472323,1.697963,2
1752551081,1.47474,1.72455,2
1752551081,1.441657,1.651234,2
1752551081,1.461849,1.56417,2
1752551081,1.467489,1.647961,2
1752551081,1.40943,1.740664,2
1752551081,1.401373,1.773696,2
1752551081,1.344976,1.741469,2
1752551081,1.365118,1.740664,2
1752551081,1.436017,1.756777,2
1752551081,1.505356,1.683461,2
1752551081,1.543223,1.564976,2
1752551081,1.672181,1.557725,2
1752551081,1.666541,1.59962,2
1752551081,1.569004,1.603648,2
1752551081,1.521469,1.556113,2
1752551081,1.441657,1.567393,2
1752551081,1.301469,1.714076,2
1752551081,1.247489,1.728579,2
1752551081,1.226491,1.660096,2
1752551081,1.272465,1.63507,2
1752551081,1.310332,1.627013,2
1752551081,1.374786,1.639098,2
1752551081,1.483603,1.672181,2
1752551081,1.476351,1.699574,2
1752551081,1.502133,1.728579,2
1752551081,1.548057,1.742275,2
1752551081,1.556113,1.731801,2
1752551081,1.527915,1.715688,2
1752551081,1.507773,1.718105,2
1752551081,1.531943,1.747915,2
1752551081,1.542417,1.772891,2
1752551081,1.531138,1.75436,2
1752551081,1.518247,1.708437,2
1752551081,1.507773,1.641515,2
1752551081,1.492465,1.609288,2
1752551081,1.489242,1.681044,2
1752551081,1.460238,1.761611,2
1752551081,1.4336,1.772085,2
1752551081,1.448153,1.715688,2
1752551081,1.431183,1.632653,2
1752551081,1.389288,1.53436,2
1752551081,1.370758,1.48602,2
1752551081,1.431989,1.590758,2
1752551081,1.473129,1.672181,2
1752551081,1.51019,1.698769,2
1752551081,1.611705,1.685878,2
1752551081,1.560142,1.614928,2
1752551081,1.493271,1.523081,2
1752551081,1.451376,1.449764,2
1752551081,1.457821,1.533555,2
1752551081,1.410236,1.651234,2
1752551081,1.380426,1.691518,2
1752551081,1.37962,1.631847,2
1752551081,1.413458,1.637487,2
1752551081,1.423127,1.689906,2
1752551081,1.423127,1.728579,2
1752551081,1.464266,1.677821,2
1752551081,1.467489,1.625402,2
1752551081,1.467489,1.650428,2
1752551081,1.469906,1.707631,2
1752551081,1.429572,1.82526,2
1752551081,1.390094,1.917157,2
1752551081,1.40943,1.807535,2
1752551081,1.518247,1.685878,2
1752551081,1.566587,1.707631,2
1752551081,1.573838,1.792227,2
1752551081,1.535166,1.769668,2
1752551081,1.464266,1.766445,2
1752551081,1.406207,1.737441,2
1752551081,1.380426,1.612511,2
1752551081,1.402985,1.508579,2
1752551081,1.412653,1.455404,2
1752551081,1.40379,1.502939,2
1752551081,1.437629,1.590758,2
1752551081,1.471517,1.589952,2
1752551081,1.506162,1.574644,2
1752551081,1.497299,1.598009,2
1752551081,1.434406,1.614122,2
1752551081,1.408624,1.631041,2
1752551081,1.425544,1.641515,2
1752551081,1.440046,1.666541,2
1752551081,1.483603,1.686683,2
1752551081,1.482797,1.709242,2
1752551081,1.468295,1.749526,2
1752551081,1.466683,1.798672,2
1752551081,1.473935,1.793838,2
1752551081,1.473129,1.776114,2
1752551081,1.587535,1.761611,2
1752551081,1.563365,1.734218,2
1752551081,1.59962,1.712465,2
1752551081,1.471517,1.722133,2
1752551081,1.3909,1.749526,2
1752551081,1.396539,1.702797,2
1752551081,1.382037,1.691518,2
1752551081,1.459432,1.692323,2
1752551081,1.495688,1.67621,2
1752551081,1.547251,1.687489,2
1752551081,1.543223,1.550474,2
1752551081,1.461044,1.487631,2
1752551081,1.398956,1.524692,2
1752551081,1.344976,1.576255,2
1752551081,1.266825,1.618956,2
1752551081,1.236965,1.628624,2
1752551081,1.274076,1.631847,2
1752551081,1.483603,1.647155,2
1752551081,1.556113,1.695546,2
1752551081,1.548057,1.743886,2
1752551081,1.55853,1.702797,2
1752551081,1.59962,1.652039,2
1752551081,1.543223,1.660902,2
1752551081,1.50455,1.658485,2
1752551081,1.460238,1.650428,2
1752551081,1.436823,1.642321,2
1752551081,1.413458,1.634264,2
1752551081,1.457821,1.633458,2
1752551081,1.497299,1.643932,2
1752551081,1.495688,1.660096,2
1752551081,1.486825,1.654456,2
1752551081,1.458627,1.651234,2
1752551081,1.442463,1.645544,2
1752551081,1.443269,1.650428,2
1752551081,1.447347,1.661707,2
1752551081,1.466683,1.680238,2
1752551081,1.459432,1.690712,2
1752551081,1.472323,1.693935,2
1752551081,1.552085,1.726162,2
1752551081,1.508579,1.735024,2
1752551081,1.471517,1.748721,2
1752551081,1.430378,1.776919,2
1752551081,1.416681,1.779336,2
1752551081,1.435212,1.714882,2
1752551081,1.421515,1.606871,2
1752551081,1.463461,1.530332,2
1752551081,1.498105,1.525498,2
1752551081,1.448958,1.587535,2
1752551081,1.413458,1.611705,2
1752551081,1.388482,1.640709,2
1752551081,1.387677,1.667347,2
1752551081,1.446542,1.692323,2
1752551081,1.472323,1.716494,2
1752551081,1.447347,1.707631,2
1752551081,1.429572,1.692323,2
1752551081,1.437629,1.678627,2
1752551081,1.457821,1.691518,2
1752551081,1.473935,1.727773,2
1752551081,1.479574,1.734218,2
1752551081,1.485214,1.722939,2
1752551081,1.497299,1.714882,2
1752551081,1.492465,1.705214,2
1752551081,1.497299,1.681044,2
1752551081,1.498105,1.66493,2
1752551081,1.486825,1.660096,2
1752551081,1.494076,1.65929,2
1752551081,1.495688,1.658485,2
1752551081,1.490048,1.651234,2
1752551081,1.466683,1.647961,2
1752551081,1.452181,1.653651,2
1752551081,1.438434,1.658485,2
1752551081,1.419904,1.67621,2
1752551081,1.42071,1.730996,2
1752551081,1.41507,1.744692,2
1752551081,1.421515,1.725356,2
1752551081,1.431183,1.739052,2
1752551081,1.436017,1.743081,2
1752551081,1.443269,1.73583,2
1752551081,1.457015,1.685878,2
1752551081,1.471517,1.586729,2
1752551081,1.493271,1.50455,2
1752551081,1.525498,1.477157,2
1752551081,1.563365,1.485214,2
1752551081,1.576255,1.618956,2
1752551081,1.556113,1.771279,2
1752551081,1.478769,1.826871,2
1752551081,1.4691,1.782559,2
1752551081,1.493271,1.687489,2
1752551081,1.460238,1.564976,2
1752551081,1.416681,1.523886,2
1752551081,1.402985,1.618151,2
1752551081,1.383648,1.552085,2
1752551081,1.431989,1.611705,2
1752551081,1.441657,1.666541,2
1752551081,1.481186,1.718105,2
1752551081,1.50455,1.743886,2
1752551081,1.51583,1.738247,2
1752551081,1.489242,1.712465,2
1752551081,1.465878,1.714882,2
1752551081,1.485214,1.717299,2
1752551081,1.517441,1.692323,2
1752551081,1.526303,1.656873,2
1752551081,1.500522,1.635875,2
1752551081,1.488437,1.618151,2
1752551081,1.490048,1.603648,2
1752551081,1.47474,1.622985,2
1752551081,1.466683,1.654456,2
1752551081,1.457821,1.674598,2
1752551081,1.443269,1.680238,2
1752551081,1.453793,1.680238,2
1752551081,1.447347,1.680238,2
1752551081,1.444124,1.674598,2
1752551081,1.454598,1.663319,2
1752551081,1.473129,1.654456,2
1752551081,1.479574,1.645544,2
1752551081,1.485214,1.651234,2
1752551081,1.482797,1.658485,2
1752551081,1.490854,1.66493,2
1752551081,1.52872,1.658485,2
1752551081,1.544834,1.691518,2
1752551081,1.510996,1.730996,2
1752551081,1.477963,1.737441,2
1752551081,1.461849,1.696352,2
1752551081,1.445736,1.665736,2
1752551081,1.37962,1.656873,2
1752551081,1.361895,1.669764,2
1752551081,1.386871,1.751137,2
1752551081,1.413458,1.805923,2
1752551082,1.438434,1.760806,2
1752551082,1.45057,1.627819,2
1752551082,1.443269,1.556919,2
1752551082,1.431989,1.567393,2
1752551082,1.422321,1.607677,2
1752551082,1.412653,1.639904,2
1752551082,1.426349,1.647155,2
1752551082,1.45621,1.662513,2
1752551082,1.511801,1.661707,2
1752551082,1.540806,1.655262,2
1752551082,1.549668,1.641515,2
1752551082,1.553697,1.632653,2
1752551082,1.527109,1.625402,2
1752551082,1.509384,1.622985,2
1752551082,1.494882,1.62943,2
1752551082,1.469906,1.638293,2
1752551082,1.443269,1.644738,2
1752551082,1.429572,1.655262,2
1752551082,1.413458,1.665736,2
1752551082,1.390094,1.663319,2
1752551082,1.398956,1.663319,2
1752551082,1.415875,1.677821,2
1752551082,1.452987,1.688295,2
1752551082,1.476351,1.692323,2
1752551082,1.465878,1.768057,2
1752551082,1.457015,1.807535,2
1752551082,1.45057,1.793033,2
1752551082,1.440046,1.76,2
1752551082,1.435212,1.741469,2
1752551082,1.492465,1.704408,2
1752551082,1.564976,1.644738,2
1752551082,1.680238,1.672181,2
1752551082,1.747109,1.610094,2
1752551082,1.672987,1.557725,2
1752551082,1.519052,1.585924,2
1752551082,1.357061,1.56417,2
1752551082,1.236965,1.535972,2
1752551082,1.179762,1.576255,2
1752551082,1.104028,1.619762,2
1752551082,1.118531,1.644738,2
1752551082,1.253935,1.647961,2
1752551082,1.338531,1.642321,2
1752551082,1.492465,1.641515,2
1752551082,1.539194,1.652845,2
1752551082,1.579478,1.669764,2
1752551082,1.569004,1.685072,2
1752551082,1.553697,1.682655,2
1752551082,1.552891,1.673793,2
1752551082,1.537583,1.682655,2
1752551082,1.531138,1.698769,2
1752551082,1.564976,1.691518,2
1752551082,1.580284,1.680238,2
1752551082,1.581089,1.663319,2
1752551082,1.568199,1.642321,2
1752551082,1.523886,1.625402,2
1752551082,1.48602,1.611705,2
1752551082,1.45057,1.608482,2
1752551082,1.429572,1.609288,2
1752551082,1.395734,1.618151,2
1752551082,1.361089,1.627013,2
1752551082,1.366729,1.632653,2
1752551082,1.358672,1.66493,2
1752551082,1.37398,1.722939,2
1752551082,1.386871,1.732607,2
1752551082,1.389288,1.698769,2
1752551082,1.418293,1.726967,2
1752551082,1.45621,1.75436,2
1752551082,1.503745,1.739052,2
1752551082,1.533555,1.716494,2
1752551082,1.566587,1.673793,2
1752551082,1.570616,1.660902,2
1752551082,1.578672,1.716494,2
1752551082,1.539194,1.741469,2
1752551082,1.511801,1.702797,2
1752551082,1.471517,1.678627,2
1752551082,1.4336,1.647155,2
1752551082,1.386065,1.635875,2
1752551082,1.381231,1.646349,2
1752551082,1.369146,1.669764,2
1752551082,1.348199,1.681044,2
1752551082,1.365924,1.677015,2
1752551082,1.382037,1.677015,2
1752551082,1.40943,1.681044,2
1752551082,1.448153,1.680238,2
1752551082,1.455404,1.681044,2
1752551082,1.477963,1.685072,2
1752551082,1.502133,1.685072,2
1752551082,1.527109,1.67621,2
1752551082,1.543223,1.67057,2
1752551082,1.554502,1.666541,2
1752551082,1.585924,1.654456,2
1752551082,1.606871,1.647961,2
1752551082,1.608482,1.73019,2
1752551082,1.564976,1.773696,2
1752551082,1.562559,1.786587,2
1752551082,1.641515,1.761611,2
1752551082,1.555308,1.739052,2
1752551082,1.447347,1.727773,2
1752551082,1.299052,1.703603,2
1752551082,1.19507,1.610899,2
1752551082,1.187819,1.586729,2
1752551082,1.21924,1.404596,2
1752551082,1.267631,1.457821,2
1752551082,1.268437,1.650428,2
1752551082,1.264408,1.767251,2
1752551082,1.263603,1.764028,2
1752551082,1.413458,1.684266,2
1752551082,1.538389,1.583507,2
1752551082,1.647155,1.466683,2
1752551082,1.665736,1.44493,2
1752551082,1.654456,1.498105,2
1752551082,1.664124,1.561753,2
1752551082,1.658485,1.611705,2
1752551082,1.63507,1.643932,2
1752551082,1.56417,1.666541,2
1752551082,1.496493,1.666541,2
1752551082,1.422321,1.631041,2
1752551082,1.390094,1.62379,2
1752551082,1.37962,1.644738,2
1752551082,1.360284,1.667347,2
1752551082,1.345782,1.679432,2
1752551082,1.347393,1.697963,2
1752551082,1.365118,1.727773,2
1752551082,1.396539,1.701991,2
1752551082,1.404596,1.671376,2
1752551082,1.441657,1.651234,2
1752551082,1.495688,1.646349,2
1752551082,1.512607,1.651234,2
1752551082,1.519052,1.665736,2
1752551082,1.562559,1.721327,2
1752551082,1.615734,1.76,2
1752551082,1.613317,1.762417,2
1752551082,1.576255,1.748721,2
1752551082,1.568199,1.772085,2
1752551082,1.571421,1.764834,2
1752551082,1.508579,1.701991,2
1752551082,1.392511,1.669764,2
1752551082,1.331279,1.689906,2
1752551082,1.315971,1.665736,2
1752551082,1.264408,1.710854,2
1752551082,1.220851,1.696352,2
1752551082,1.245072,1.673793,2
1752551082,1.410236,1.664124,2
1752551082,1.515024,1.663319,2
1752551082,1.547251,1.668153,2
1752551082,1.539194,1.679432,2
1752551082,1.524692,1.682655,2
1752551082,1.530332,1.674598,2
1752551082,1.550474,1.66493,2
1752551082,1.560142,1.655262,2
1752551082,1.573838,1.633458,2
1752551082,1.566587,1.618151,2
1752551082,1.566587,1.603648,2
1752551082,1.538389,1.60526,2
1752551082,1.526303,1.618151,2
1752551082,1.493271,1.632653,2
1752551082,1.442463,1.683461,2
1752551082,1.406207,1.749526,2
1752551082,1.336919,1.780948,2
1752551082,1.305498,1.768862,2
1752551082,1.343365,1.731801,2
1752551082,1.348199,1.723745,2
1752551082,1.381231,1.768862,2
1752551082,1.490854,1.78981,2
1752551082,1.523081,1.715688,2
1752551082,1.530332,1.62379,2
1752551082,1.483603,1.536777,2
1752551082,1.416681,1.550474,2
1752551082,1.404596,1.473935,2
1752551082,1.423127,1.465072,2
1752551082,1.448153,1.529526,2
1752551082,1.472323,1.582701,2
1752551082,1.51019,1.614928,2
1752551082,1.530332,1.63507,2
1752551082,1.50455,1.652845,2
1752551082,1.481186,1.669764,2
1752551082,1.464266,1.685878,2
1752551082,1.43924,1.696352,2
1752551082,1.40943,1.695546,2
1752551082,1.41507,1.686683,2
1752551082,1.429572,1.685072,2
1752551082,1.446542,1.697963,2
1752551082,1.461044,1.734218,2
1752551082,1.48038,1.751943,2
1752551082,1.477963,1.755166,2
1752551082,1.486825,1.722939,2
1752551082,1.531943,1.667347,2
1752551082,1.511801,1.646349,2
1752551082,1.492465,1.658485,2
1752551082,1.533555,1.70038,2
1752551082,1.563365,1.682655,2
1752551082,1.535972,1.685072,2
1752551082,1.469906,1.677821,2
1752551082,1.482797,1.621373,2
1752551082,1.47474,1.65929,2
1752551082,1.466683,1.738247,2
1752551082,1.440046,1.731801,2
1752551082,1.37962,1.645544,2
1752551082,1.317583,1.651234,2
1752551082,1.318389,1.689906,2
1752551082,1.334502,1.622985,2
1752551082,1.345782,1.56981,2
1752551082,1.332891,1.596397,2
1752551082,1.301469,1.618151,2
1752551082,1.426349,1.631041,2
1752551082,1.502133,1.628624,2
1752551082,1.509384,1.624596,2
1752551082,1.568199,1.632653,2
1752551082,1.602037,1.642321,2
1752551082,1.594786,1.642321,2
1752551082,1.568199,1.644738,2
1752551082,1.54564,1.641515,2
1752551082,1.522275,1.652845,2
1752551082,1.483603,1.663319,2
1752551082,1.452181,1.650428,2
1752551082,1.418293,1.628624,2
1752551082,1.471517,1.614928,2
1752551082,1.489242,1.614122,2
1752551082,1.440851,1.631847,2
1752551082,1.448958,1.643932,2
1752551082,1.431989,1.655262,2
1752551082,1.377203,1.690712,2
1752551082,1.328057,1.773696,2
1752551082,1.408624,1.886541,2
1752551082,1.452987,1.918769,2
1752551082,1.502133,1.838151,2
1752551082,1.54564,1.730996,2
1752551082,1.552085,1.693935,2
1752551082,1.492465,1.582701,2
1752551082,1.45057,1.48038,2
1752551082,1.451376,1.519052,2
1752551082,1.447347,1.589952,2
1752551082,1.371563,1.653651,2
1752551082,1.392511,1.711659,2
1752551082,1.454598,1.669764,2
1752551082,1.470712,1.668153,2
1752551082,1.440046,1.678627,2
1752551082,1.398956,1.67621,2
1752551082,1.40943,1.677015,2
1752551082,1.459432,1.671376,2
1752551082,1.483603,1.668153,2
1752551082,1.498911,1.672987,2
1752551082,1.489242,1.685072,2
1752551082,1.491659,1.698769,2
1752551082,1.497299,1.685072,2
1752551082,1.506967,1.673793,2
1752551082,1.506967,1.673793,2
1752551082,1.503745,1.672987,2
1752551082,1.486825,1.672181,2
1752551082,1.506162,1.67621,2
1752551082,1.489242,1.682655,2
1752551082,1.482797,1.638293,2
1752551082,1.458627,1.601231,2
1752551082,1.459432,1.593175,2
1752551082,1.458627,1.594786,2
1752551082,1.457015,1.603648,2
1752551082,1.421515,1.633458,2
1752551082,1.395734,1.654456,2
1752551082,1.374786,1.67621,2
1752551082,1.391705,1.705214,2
1752551082,1.414264,1.702797,2
1752551082,1.431183,1.697157,2
1752551082,1.440851,1.710048,2
1752551082,1.458627,1.712465,2
1752551082,1.464266,1.712465,2
1752551082,1.473935,1.703603,2
1752551082,1.490048,1.692323,2
1752551082,1.497299,1.685878,2
1752551082,1.505356,1.679432,2
1752551082,1.51019,1.660096,2
1752551082,1.506967,1.643126,2
1752551082,1.350616,1.79545,2
1752551082,1.55853,1.652039,2
1752551082,1.548057,1.593175,2
1752551082,1.55128,1.663319,2
1752551082,1.548862,1.770474,2
1752551082,1.506162,1.798672,2
1752551082,1.412653,1.831705,2
1752551082,1.512607,1.770474,2
1752551082,1.472323,1.552891,2
1752551082,1.461849,1.431989,2
1752551082,1.369952,1.37398,2
1752551082,1.252323,1.384454,2
1752551082,1.303886,1.531943,2
1752551082,1.370758,1.645544,2
1752551082,1.491659,1.732607,2
1752551082,1.493271,1.792227,2
1752551082,1.508579,1.794644,2
1752551082,1.447347,1.75436,2
1752551082,1.393317,1.716494,2
1752551082,1.37398,1.688295,2
1752551082,1.406207,1.667347,2
1752551082,1.4336,1.663319,2
1752551082,1.458627,1.666541,2
1752551082,1.490048,1.67057,2
1752551082,1.519858,1.672987,2
1752551082,1.527109,1.677821,2
1752551082,1.523886,1.672181,2
1752551082,1.561753,1.663319,2
1752551082,1.573838,1.655262,2
1752551082,1.549668,1.641515,2
1752551082,1.503745,1.634264,2
1752551082,1.487631,1.627013,2
1752551082,1.448958,1.620568,2
1752551082,1.434406,1.621373,2
1752551082,1.405402,1.633458,2
1752551082,1.389288,1.655262,2
1752551082,1.392511,1.673793,2
1752551082,1.40379,1.699574,2
1752551082,1.416681,1.71891,2
1752551082,1.411847,1.743081,2
1752551082,1.419904,1.748721,2
1752551082,1.454598,1.727773,2
1752551082,1.473129,1.710048,2
1752551082,1.481186,1.697963,2
1752551082,1.483603,1.697963,2
1752551082,1.500522,1.692323,2
1752551082,1.518247,1.680238,2
1752551082,1.531138,1.666541,2
1752551082,1.524692,1.652039,2
1752551082,1.505356,1.643932,2
1752551082,1.484408,1.638293,2
1752551082,1.467489,1.633458,2
1752551082,1.438434,1.634264,2
1752551082,1.416681,1.638293,2
1752551082,1.406207,1.638293,2
1752551082,1.399762,1.643126,2
1752551082,1.40379,1.652845,2
1752551082,1.413458,1.667347,2
1752551082,1.419098,1.674598,2
1752551082,1.432795,1.682655,2
1752551082,1.43924,1.678627,2
1752551082,1.452181,1.674598,2
1752551082,1.473129,1.678627,2
1752551082,1.48602,1.674598,2
1752551082,1.496493,1.67057,2
1752551082,1.505356,1.667347,2
1752551082,1.512607,1.656873,2
1752551082,1.524692,1.640709,2
1752551082,1.519858,1.62943,2
1752551082,1.498911,1.611705,2
1752551082,1.48038,1.601231,2
1752551082,1.465878,1.609288,2
1752551082,1.438434,1.637487,2
1752551082,1.416681,1.678627,2
1752551082,1.40943,1.696352,2
1752551082,1.404596,1.702797,2
1752551082,1.391705,1.695546,2
1752551082,1.427155,1.687489,2
1752551082,1.461849,1.696352,2
1752551082,1.476351,1.689906,2
1752551082,1.465072,1.674598,2
1752551082,1.465072,1.721327,2
1752551082,1.482797,1.760806,2
1752551082,1.517441,1.780948,2
1752551082,1.540806,1.760806,2
1752551082,1.588341,1.768057,2
1752551082,1.589146,1.787393,2
1752551082,1.502133,1.763223,2
1752551082,1.440851,1.747109,2
1752551082,1.443269,1.668959,2
1752551082,1.390094,1.710048,2
1752551082,1.349004,1.652039,2
1752551082,1.335308,1.451376,2
1752551082,1.361895,1.440046,2
1752551082,1.394928,1.400568,2
1752551082,1.441657,1.465878,2
1752551082,1.502939,1.583507,2
1752551082,1.451376,1.702797,2
1752551082,1.445736,1.668153,2
1752551082,1.500522,1.62943,2
1752551082,1.437629,1.660902,2
1752551082,1.386065,1.674598,2
1752551082,1.382843,1.624596,2
1752551082,1.42071,1.643932,2
1752551082,1.407819,1.70602,2
1752551082,1.489242,1.705214,2
1752551082,1.574644,1.635875,2
1752551082,1.57545,1.62943,2
1752551082,1.54564,1.637487,2
1752551082,1.522275,1.647155,2
1752551082,1.498105,1.661707,2
1752551082,1.496493,1.67057,2
1752551082,1.494076,1.675404,2
1752551082,1.491659,1.685878,2
1752551082,1.438434,1.693129,2
1752551082,1.401373,1.709242,2
1752551082,1.412653,1.715688,2
1752551082,1.44493,1.712465,2
1752551082,1.457015,1.693129,2
1752551082,1.441657,1.673793,2
1752551082,1.436823,1.67057,2
1752551082,1.465072,1.666541,2
1752551082,1.496493,1.665736,2
1752551082,1.51019,1.667347,2
1752551082,1.473129,1.658485,2
1752551082,1.470712,1.632653,2
1752551082,1.467489,1.598814,2
1752551082,1.509384,1.614122,2
1752551082,1.505356,1.647961,2
1752551082,1.478769,1.666541,2
1752551082,1.451376,1.672987,2
1752551082,1.440851,1.625402,2
1752551082,1.425544,1.625402,2
1752551082,1.392511,1.664124,2
1752551082,1.377203,1.693935,2
1752551082,1.371563,1.716494,2
1752551082,1.407013,1.734218,2
1752551082,1.422321,1.743081,2
1752551082,1.45057,1.725356,2
1752551082,1.479574,1.710048,2
1752551082,1.500522,1.695546,2
1752551082,1.510996,1.682655,2
1752551082,1.506162,1.681044,2
1752551082,1.516635,1.678627,2
1752551082,1.515024,1.673793,2
1752551082,1.506162,1.65929,2
1752551082,1.477963,1.658485,2
1752551082,1.467489,1.640709,2
1752551082,1.459432,1.651234,2
1752551082,1.455404,1.667347,2
1752551082,1.452987,1.6891,2
1752551082,1.453793,1.745498,2
1752551082,1.43924,1.768862,2
1752551082,1.426349,1.770474,2
1752551082,1.413458,1.760806,2
1752551082,1.436823,1.748721,2
1752551082,1.471517,1.729384,2
1752551082,1.487631,1.685878,2
1752551082,1.503745,1.622179,2
1752551082,1.535166,1.502133,2
1752551082,1.490048,1.469906,2
1752551082,1.443269,1.483603,2
1752551082,1.42071,1.573838,2
1752551082,1.397345,1.654456,2
1752551082,1.363507,1.713271,2
1752551082,1.393317,1.692323,2
1752551082,1.465878,1.642321,2
1752551082,1.487631,1.617345,2
1752551082,1.517441,1.660902,2
1752551082,1.509384,1.708437,2
1752551082,1.508579,1.726967,2
1752551082,1.484408,1.705214,2
1752551082,1.466683,1.723745,2
1752551082,1.478769,1.756777,2
1752551082,1.473129,1.818009,2
1752551082,1.471517,1.821231,2
1752551082,1.452181,1.769668,2
1752551082,1.432795,1.631847,2
1752551082,1.406207,1.495688,2
1752551082,1.383648,1.490854,2
1752551082,1.352227,1.549668,2
1752551082,1.344976,1.602843,2
1752551082,1.392511,1.646349,2
1752551082,1.47474,1.677821,2
1752551082,1.536777,1.686683,2
1752551082,1.54,1.661707,2
1752551082,1.531138,1.656873,2
1752551082,1.548862,1.695546,2
1752551082,1.573033,1.71891,2
1752551082,1.53436,1.638293,2
1752551082,1.461044,1.587535,2
1752551082,1.4336,1.592369,2
1752551082,1.423932,1.60526,2
1752551082,1.405402,1.626207,2
1752551082,1.401373,1.637487,2
1752551082,1.387677,1.647155,2
1752551082,1.432795,1.663319,2
1752551082,1.446542,1.672987,2
1752551082,1.45057,1.66493,2
1752551082,1.453793,1.657679,2
1752551082,1.453793,1.665736,2
1752551082,1.48602,1.683461,2
1752551082,1.492465,1.706825,2
1752551082,1.505356,1.731801,2
1752551082,1.491659,1.749526,2
1752551082,1.489242,1.764834,2
1752551082,1.491659,1.72455,2
1752551082,1.514218,1.651234,2
1752551082,1.493271,1.618956,2
1752551082,1.452181,1.63507,2
1752551082,1.422321,1.677015,2
1752551082,1.419904,1.737441,2
1752551082,1.427961,1.755972,2
1752551082,1.452987,1.710854,2
1752551082,1.455404,1.638293,2
1752551082,1.414264,1.548057,2
1752551082,1.396539,1.509384,2
1752551082,1.458627,1.55853,2
1752551082,1.481186,1.621373,2
1752551082,1.499716,1.672181,2
1752551082,1.510996,1.714882,2
1752551082,1.50455,1.726162,2
1752551082,1.465072,1.710048,2
1752551082,1.410236,1.650428,2
1752551082,1.418293,1.656873,2
1752551082,1.441657,1.761611,2
1752551082,1.428766,1.781753,2
1752551082,1.461849,1.737441,2
1752551082,1.477963,1.660902,2
1752551082,1.478769,1.589952,2
1752551082,1.519858,1.538389,2
1752551082,1.519858,1.532749,2
1752551082,1.465072,1.589952,2
1752551082,1.455404,1.614928,2
1752551082,1.429572,1.611705,2
1752551082,1.469906,1.660096,2
1752551082,1.41507,1.729384,2
1752551082,1.372369,1.81962,2
1752551082,1.358672,1.818009,2
1752551082,1.407819,1.85507,2
1752551082,1.463461,1.880902,2
1752551082,1.518247,1.794644,2
1752551082,1.510996,1.722939,2
1752551082,1.471517,1.672987,2
1752551082,1.448153,1.675404,2
1752551082,1.484408,1.668153,2
1752551082,1.520664,1.586729,2
1752551082,1.521469,1.486825,2
1752551082,1.531138,1.394122,2
1752551082,1.523886,1.454598,2
1752551082,1.518247,1.550474,2
1752551082,1.446542,1.637487,2
1752551082,1.398956,1.657679,2
1752551082,1.394928,1.656873,2
1752551082,1.369952,1.673793,2
1752551082,1.382037,1.685072,2
1752551082,1.394122,1.729384,2
1752551082,1.405402,1.78417,2
1752551082,1.401373,1.799478,2
1752551082,1.457015,1.734218,2
1752551082,1.513413,1.697963,2
1752551082,1.50455,1.741469,2
1752551082,1.489242,1.783365,2
1752551082,1.482797,1.763223,2
1752551082,1.477157,1.759194,2
1752551082,1.468295,1.751137,2
1752551082,1.48602,1.677015,2
1752551082,1.614122,1.549668,2
1752551082,1.639904,1.486825,2
1752551082,1.544028,1.495688,2
1752551082,1.436017,1.543223,2
1752551082,1.457015,1.60526,2
1752551082,1.513413,1.573838,2
1752551082,1.395734,1.667347,2
1752551082,1.386065,1.755972,2
1752551082,1.362701,1.719716,2
1752551082,1.303886,1.743886,2
1752551082,1.246683,1.762417,2
1752551082,1.236965,1.73583,2
1752551082,1.386871,1.710048,2
1752551082,1.473935,1.677015,2
1752551082,1.573033,1.655262,2
1752551082,1.634264,1.590758,2
1752551082,1.596397,1.616539,2
1752551082,1.510996,1.668153,2
1752551082,1.491659,1.658485,2
1752551082,1.442463,1.612511,2
1752551082,1.441657,1.57545,2
1752551082,1.544834,1.577061,2
1752551082,1.539194,1.579478,2
1752551082,1.512607,1.571421,2
1752551082,1.519052,1.581895,2
1752551082,1.490854,1.631847,2
1752551082,1.436017,1.701991,2
1752551082,1.3909,1.757583,2
1752551082,1.405402,1.683461,2
1752551082,1.405402,1.645544,2
1752551082,1.392511,1.695546,2
1752551082,1.367535,1.729384,2
1752551082,1.386065,1.747915,2
1752551082,1.432795,1.710048,2
1752551082,1.408624,1.671376,2
1752551082,1.444124,1.702797,2
1752551082,1.486825,1.719716,2
1752551082,1.517441,1.730996,2
1752551082,1.548862,1.745498,2
1752551082,1.541611,1.742275,2
1752551082,1.509384,1.780142,2
1752551082,1.508579,1.766445,2
1752551082,1.503745,1.671376,2
1752551082,1.476351,1.622179,2
1752551082,1.434406,1.613317,2
1752551082,1.40943,1.602037,2
1752551082,1.398956,1.56417,2
1752551082,1.37962,1.560948,2
1752551082,1.369952,1.582701,2
1752551082,1.388482,1.611705,2
1752551082,1.440851,1.639904,2
1752551082,1.487631,1.716494,2
1752551082,1.508579,1.815592,2
1752551082,1.482797,1.868011,2
1752551082,1.471517,1.870428,2
1752551082,1.507773,1.803506,2
1752551082,1.60526,1.713271,2
1752551082,1.601231,1.628624,2
1752551082,1.577867,1.592369,2
1752551082,1.555308,1.544834,2
1752551082,1.477157,1.513413,2
1752551082,1.3909,1.543223,2
1752551082,1.336919,1.606871,2
1752551082,1.303081,1.637487,2
1752551082,1.271659,1.633458,2
1752551082,1.337725,1.596397,2
1752551082,1.457821,1.505356,2
1752551082,1.583507,1.457821,2
1752551082,1.563365,1.560948,2
1752551082,1.511801,1.681849,2
1752551082,1.486825,1.712465,2
1752551082,1.441657,1.695546,2
1752551082,1.393317,1.661707,2
1752551082,1.393317,1.690712,2
1752551082,1.394122,1.743081,2
1752551082,1.401373,1.736635,2
1752551083,1.440046,1.747109,2
1752551083,1.521469,1.809952,2
1752551083,1.544028,1.818009,2
1752551083,1.51583,1.776919,2
1752551083,1.503745,1.728579,2
1752551083,1.517441,1.714882,2
1752551083,1.517441,1.639098,2
1752551083,1.498911,1.573033,2
1752551083,1.442463,1.653651,2
1752551083,1.453793,1.692323,2
1752551083,1.444124,1.683461,2
1752551083,1.389288,1.693129,2
1752551083,1.386065,1.701186,2
1752551083,1.418293,1.701186,2
1752551083,1.402985,1.683461,2
1752551083,1.390094,1.667347,2
1752551083,1.43924,1.652039,2
1752551083,1.473935,1.635875,2
1752551083,1.473935,1.638293,2
1752551083,1.509384,1.642321,2
1752551083,1.521469,1.641515,2
1752551083,1.541611,1.637487,2
1752551083,1.549668,1.63507,2
1752551083,1.550474,1.642321,2
1752551083,1.535972,1.638293,2
1752551083,1.516635,1.631847,2
1752551083,1.497299,1.63507,2
1752551083,1.45621,1.643932,2
1752551083,1.427155,1.658485,2
1752551083,1.407013,1.67057,2
1752551083,1.362701,1.667347,2
1752551083,1.361089,1.668153,2
1752551083,1.393317,1.665736,2
1752551083,1.430378,1.682655,2
1752551083,1.460238,1.691518,2
1752551083,1.448958,1.702797,2
1752551083,1.444124,1.723745,2
1752551083,1.45621,1.737441,2
1752551083,1.452181,1.719716,2
1752551083,1.426349,1.690712,2
1752551083,1.452181,1.660902,2
1752551083,1.513413,1.602843,2
1752551083,1.553697,1.581895,2
1752551083,1.581089,1.598814,2
1752551083,1.56981,1.622179,2
1752551083,1.543223,1.640709,2
1752551083,1.508579,1.652039,2
1752551083,1.458627,1.650428,2
1752551083,1.404596,1.644738,2
1752551083,1.365118,1.65929,2
1752551083,1.337725,1.672987,2
1752551083,1.322417,1.671376,2
1752551083,1.351421,1.67057,2
1752551083,1.375592,1.664124,2
1752551083,1.406207,1.660096,2
1752551083,1.443269,1.660096,2
1752551083,1.467489,1.658485,2
1752551083,1.495688,1.653651,2
1752551083,1.513413,1.655262,2
1752551083,1.524692,1.645544,2
1752551083,1.531943,1.652039,2
1752551083,1.560142,1.653651,2
1752551083,1.580284,1.716494,2
1752551083,1.569004,1.786587,2
1752551083,1.569004,1.831705,2
1752551083,1.549668,1.826871,2
1752551083,1.53436,1.775308,2
1752551083,1.484408,1.695546,2
1752551083,1.40379,1.618956,2
1752551083,1.329668,1.582701,2
1752551083,1.29019,1.555308,2
1752551083,1.277299,1.56981,2
1752551083,1.299858,1.595592,2
1752551083,1.326445,1.59398,2
1752551083,1.394122,1.593175,2
1752551083,1.445736,1.611705,2
1752551083,1.512607,1.658485,2
1752551083,1.562559,1.736635,2
1752551083,1.521469,1.762417,2
1752551083,1.468295,1.767251,2
1752551083,1.468295,1.753554,2
1752551083,1.519052,1.727773,2
1752551083,1.553697,1.6891,2
1752551083,1.591563,1.628624,2
1752551083,1.613317,1.573838,2
1752551083,1.601231,1.573838,2
1752551083,1.548862,1.618956,2
1752551083,1.442463,1.634264,2
1752551083,1.342559,1.611705,2
1752551083,1.261991,1.577867,2
1752551083,1.236965,1.602037,2
1752551083,1.283744,1.658485,2
1752551083,1.35545,1.712465,2
1752551083,1.369952,1.763223,2
1752551083,1.42071,1.714076,2
1752551083,1.455404,1.686683,2
1752551083,1.472323,1.697157,2
1752551083,1.470712,1.689906,2
1752551083,1.47474,1.668153,2
1752551083,1.512607,1.631041,2
1752551083,1.539194,1.595592,2
1752551083,1.665736,1.573033,2
1752551083,1.747915,1.562559,2
1752551083,1.747109,1.639098,2
1752551083,1.692323,1.839762,2
1752551083,1.584312,1.940522,2
1752551083,1.490854,1.867205,2
1752551083,1.386065,1.734218,2
1752551083,1.286162,1.624596,2
1752551083,1.202321,1.519858,2
1752551083,1.133033,1.498105,2
1752551083,1.155592,1.566587,2
1752551083,1.273271,1.655262,2
1752551083,1.410236,1.742275,2
1752551083,1.502133,1.772891,2
1752551083,1.516635,1.711659,2
1752551083,1.48602,1.673793,2
1752551083,1.48602,1.660096,2
1752551083,1.51019,1.655262,2
1752551083,1.521469,1.652845,2
1752551083,1.527915,1.650428,2
1752551083,1.560948,1.621373,2
1752551083,1.620568,1.614928,2
1752551083,1.615734,1.619762,2
1752551083,1.59398,1.625402,2
1752551083,1.553697,1.634264,2
1752551083,1.499716,1.646349,2
1752551083,1.427961,1.653651,2
1752551083,1.382037,1.651234,2
1752551083,1.338531,1.660902,2
1752551083,1.309526,1.681044,2
1752551083,1.32564,1.698769,2
1752551083,1.367535,1.703603,2
1752551083,1.398956,1.710048,2
1752551083,1.443269,1.708437,2
1752551083,1.48038,1.693935,2
1752551083,1.506967,1.668153,2
1752551083,1.494076,1.625402,2
1752551083,1.458627,1.640709,2
1752551083,1.457821,1.716494,2
1752551083,1.445736,1.769668,2
1752551083,1.488437,1.777725,2
1752551083,1.577867,1.737441,2
1752551083,1.620568,1.684266,2
1752551083,1.580284,1.616539,2
1752551083,1.515024,1.526303,2
1752551083,1.479574,1.483603,2
1752551083,1.431183,1.536777,2
1752551083,1.3909,1.600426,2
1752551083,1.335308,1.645544,2
1752551083,1.307109,1.672181,2
1752551083,1.305498,1.684266,2
1752551083,1.369952,1.689906,2
1752551083,1.431989,1.695546,2
1752551083,1.463461,1.698769,2
1752551083,1.485214,1.697963,2
1752551083,1.503745,1.728579,2
1752551083,1.402985,1.658485,2
1752551083,1.358672,1.654456,2
1752551083,1.305498,1.660902,2
1752551083,1.332085,1.681044,2
1752551083,1.382037,1.647961,2
1752551083,1.459432,1.624596,2
1752551083,1.500522,1.638293,2
1752551083,1.510996,1.646349,2
1752551083,1.465072,1.608482,2
1752551083,1.457821,1.595592,2
1752551083,1.47474,1.606066,2
1752551083,1.486825,1.621373,2
1752551083,1.531943,1.622179,2
1752551083,1.542417,1.620568,2
1752551083,1.55853,1.609288,2
1752551083,1.544028,1.616539,2
1752551083,1.506967,1.631041,2
1752551083,1.487631,1.640709,2
1752551083,1.473129,1.678627,2
1752551083,1.451376,1.70602,2
1752551083,1.441657,1.734218,2
1752551083,1.421515,1.762417,2
1752551083,1.4336,1.78981,2
1752551083,1.431989,1.822843,2
1752551083,1.434406,1.837345,2
1752551083,1.47474,1.853458,2
1752551083,1.516635,1.855875,2
1752551083,1.487631,1.850236,2
1752551083,1.454598,1.744692,2
1752551083,1.408624,1.461044,2
1752551083,1.364312,1.369146,2
1752551083,1.353838,1.444124,2
1752551083,1.336919,1.520664,2
1752551083,1.380426,1.566587,2
1752551083,1.437629,1.593175,2
1752551083,1.517441,1.60526,2
1752551083,1.582701,1.608482,2
1752551083,1.583507,1.633458,2
1752551083,1.515024,1.685878,2
1752551083,1.477963,1.706825,2
1752551083,1.444124,1.722939,2
1752551083,1.419098,1.733413,2
1752551083,1.400568,1.729384,2
1752551083,1.397345,1.710854,2
1752551083,1.42071,1.695546,2
1752551083,1.438434,1.6891,2
1752551083,1.45621,1.684266,2
1752551083,1.461044,1.685878,2
1752551083,1.47474,1.681044,2
1752551083,1.48602,1.671376,2
1752551083,1.496493,1.655262,2
1752551083,1.494076,1.652845,2
1752551083,1.523081,1.654456,2
1752551083,1.553697,1.643932,2
1752551083,1.559336,1.627013,2
1752551083,1.556919,1.617345,2
1752551083,1.536777,1.62379,2
1752551083,1.490854,1.647155,2
1752551083,1.434406,1.734218,2
1752551083,1.390094,1.782559,2
1752551083,1.366729,1.776114,2
1752551083,1.329668,1.737441,2
1752551083,1.311943,1.690712,2
1752551083,1.375592,1.674598,2
1752551083,1.445736,1.651234,2
1752551083,1.466683,1.631847,2
1752551083,1.434406,1.643932,2
1752551083,1.423127,1.626207,2
1752551083,1.453793,1.60526,2
1752551083,1.491659,1.600426,2
1752551083,1.48038,1.602037,2
1752551083,1.461044,1.603648,2
1752551083,1.505356,1.606871,2
1752551083,1.541611,1.662513,2
1752551083,1.578672,1.718105,2
1752551083,1.581089,1.744692,2
1752551083,1.568199,1.737441,2
1752551083,1.529526,1.704408,2
1752551083,1.473129,1.655262,2
1752551083,1.407819,1.573033,2
1752551083,1.37398,1.577867,2
1752551083,1.342559,1.618956,2
1752551083,1.32,1.663319,2
1752551083,1.34417,1.682655,2
1752551083,1.361895,1.690712,2
1752551083,1.348199,1.679432,2
1752551083,1.384454,1.671376,2
1752551083,1.423127,1.674598,2
1752551083,1.460238,1.67621,2
1752551083,1.505356,1.669764,2
1752551083,1.531138,1.672181,2
1752551083,1.561753,1.67621,2
1752551083,1.614928,1.671376,2
1752551083,1.691518,1.662513,2
1752551083,1.713271,1.664124,2
1752551083,1.686683,1.667347,2
1752551083,1.627013,1.674598,2
1752551083,1.531138,1.677821,2
1752551083,1.431183,1.680238,2
1752551083,1.32,1.668153,2
1752551083,1.232131,1.654456,2
1752551083,1.180568,1.644738,2
1752551083,1.191041,1.645544,2
1752551083,1.251517,1.674598,2
1752551083,1.339336,1.701991,2
1752551083,1.391705,1.75436,2
1752551083,1.398956,1.813175,2
1752551083,1.448958,1.793033,2
1752551083,1.502133,1.66493,2
1752551083,1.529526,1.586729,2
1752551083,1.564976,1.577061,2
1752551083,1.650428,1.622179,2
1752551083,1.67057,1.674598,2
1752551083,1.677821,1.708437,2
1752551083,1.669764,1.714076,2
1752551083,1.666541,1.677015,2
1752551083,1.562559,1.643932,2
1752551083,1.434406,1.626207,2
1752551083,1.366729,1.622179,2
1752551083,1.34417,1.608482,2
1752551083,1.292607,1.618956,2
1752551083,1.22488,1.621373,2
1752551083,1.163648,1.609288,2
1752551083,1.234548,1.573033,2
1752551083,1.339336,1.587535,2
1752551083,1.422321,1.637487,2
1752551083,1.48602,1.693129,2
1752551083,1.524692,1.731801,2
1752551083,1.543223,1.755972,2
1752551083,1.539194,1.727773,2
1752551083,1.519858,1.714882,2
1752551083,1.516635,1.708437,2
1752551083,1.540806,1.693935,2
1752551083,1.583507,1.684266,2
1752551083,1.621373,1.681044,2
1752551083,1.619762,1.680238,2
1752551083,1.592369,1.683461,2
1752551083,1.535972,1.687489,2
1752551083,1.465072,1.684266,2
1752551083,1.394122,1.679432,2
1752551083,1.343365,1.682655,2
1752551083,1.304692,1.685878,2
1752551083,1.294218,1.683461,2
1752551083,1.324028,1.680238,2
1752551083,1.380426,1.679432,2
1752551083,1.410236,1.67621,2
1752551083,1.435212,1.677821,2
1752551083,1.461044,1.672987,2
1752551083,1.494882,1.672987,2
1752551083,1.519052,1.671376,2
1752551083,1.519858,1.663319,2
1752551083,1.52872,1.668153,2
1752551083,1.531138,1.693129,2
1752551083,1.555308,1.745498,2
1752551083,1.55853,1.749526,2
1752551083,1.553697,1.712465,2
1752551083,1.531138,1.644738,2
1752551083,1.481991,1.579478,2
1752551083,1.477157,1.55128,2
1752551083,1.48602,1.613317,2
1752551083,1.436017,1.657679,2
1752551083,1.361895,1.624596,2
1752551083,1.313555,1.631041,2
1752551083,1.311138,1.67057,2
1752551083,1.315166,1.719716,2
1752551083,1.321611,1.741469,2
1752551083,1.351421,1.730996,2
1752551083,1.425544,1.678627,2
1752551083,1.478769,1.616539,2
1752551083,1.506967,1.552085,2
1752551083,1.532749,1.51583,2
1752551083,1.552085,1.56417,2
1752551083,1.572227,1.598814,2
1752551083,1.593175,1.59398,2
1752551083,1.596397,1.602037,2
1752551083,1.55853,1.634264,2
1752551083,1.506967,1.658485,2
1752551083,1.457821,1.65929,2
1752551083,1.40943,1.665736,2
1752551083,1.388482,1.681044,2
1752551083,1.377203,1.703603,2
1752551083,1.381231,1.70602,2
1752551083,1.382843,1.698769,2
1752551083,1.396539,1.697157,2
1752551083,1.418293,1.692323,2
1752551083,1.436017,1.695546,2
1752551083,1.452181,1.692323,2
1752551083,1.465878,1.687489,2
1752551083,1.482797,1.681044,2
1752551083,1.493271,1.678627,2
1752551083,1.498911,1.675404,2
1752551083,1.506967,1.667347,2
1752551083,1.519858,1.65929,2
1752551083,1.527109,1.660096,2
1752551083,1.530332,1.654456,2
1752551083,1.517441,1.657679,2
1752551083,1.495688,1.664124,2
1752551083,1.473129,1.668153,2
1752551083,1.44493,1.710854,2
1752551083,1.419904,1.743886,2
1752551083,1.40379,1.756777,2
1752551083,1.389288,1.735024,2
1752551083,1.388482,1.67621,2
1752551083,1.40379,1.625402,2
1752551083,1.419098,1.573838,2
1752551083,1.423127,1.589146,2
1752551083,1.446542,1.627819,2
1752551083,1.48602,1.653651,2
1752551083,1.556919,1.677015,2
1752551083,1.573033,1.697963,2
1752551083,1.573838,1.693935,2
1752551083,1.579478,1.634264,2
1752551083,1.537583,1.619762,2
1752551083,1.51583,1.681044,2
1752551083,1.452181,1.639904,2
1752551083,1.391705,1.59398,2
1752551083,1.35545,1.646349,2
1752551083,1.319194,1.727773,2
1752551083,1.347393,1.757583,2
1752551083,1.363507,1.749526,2
1752551083,1.37962,1.699574,2
1752551083,1.367535,1.710048,2
1752551083,1.440851,1.698769,2
1752551083,1.539194,1.710048,2
1752551083,1.546445,1.712465,2
1752551083,1.517441,1.695546,2
1752551083,1.489242,1.607677,2
1752551083,1.467489,1.570616,2
1752551083,1.47474,1.585924,2
1752551083,1.458627,1.581089,2
1752551083,1.473935,1.596397,2
1752551083,1.502939,1.667347,2
1752551083,1.51019,1.657679,2
1752551083,1.518247,1.615734,2
1752551083,1.464266,1.621373,2
1752551083,1.411041,1.634264,2
1752551083,1.431183,1.65929,2
1752551083,1.454598,1.730996,2
1752551083,1.452987,1.770474,2
1752551083,1.454598,1.79545,2
1752551083,1.445736,1.792227,2
1752551083,1.431183,1.737441,2
1752551083,1.451376,1.661707,2
1752551083,1.461044,1.581895,2
1752551083,1.485214,1.595592,2
1752551083,1.518247,1.661707,2
1752551083,1.51583,1.704408,2
1752551083,1.509384,1.688295,2
1752551083,1.484408,1.684266,2
1752551083,1.525498,1.737441,2
1752551083,1.48602,1.788199,2
1752551083,1.496493,1.763223,2
1752551083,1.519052,1.749526,2
1752551083,1.490048,1.67621,2
1752551083,1.40379,1.496493,2
1752551083,1.37398,1.407819,2
1752551083,1.374786,1.410236,2
1752551083,1.402985,1.476351,2
1752551083,1.402985,1.553697,2
1752551083,1.349004,1.606871,2
1752551083,1.349004,1.625402,2
1752551083,1.373175,1.65929,2
1752551083,1.43924,1.697157,2
1752551083,1.463461,1.706825,2
1752551083,1.454598,1.697963,2
1752551083,1.496493,1.696352,2
1752551083,1.515024,1.689906,2
1752551083,1.554502,1.684266,2
1752551083,1.583507,1.708437,2
1752551083,1.539194,1.743081,2
1752551083,1.486825,1.801895,2
1752551083,1.473129,1.710048,2
1752551083,1.481186,1.643932,2
1752551083,1.458627,1.643126,2
1752551083,1.408624,1.647155,2
1752551083,1.40943,1.660902,2
1752551083,1.452987,1.66493,2
1752551083,1.465072,1.682655,2
1752551083,1.490854,1.698769,2
1752551083,1.48602,1.741469,2
1752551083,1.438434,1.768862,2
1752551083,1.423127,1.763223,2
1752551083,1.467489,1.729384,2
1752551083,1.489242,1.644738,2
1752551083,1.508579,1.600426,2
1752551083,1.48602,1.583507,2
1752551083,1.448958,1.660902,2
1752551083,1.440851,1.656873,2
1752551083,1.477963,1.587535,2
1752551083,1.465878,1.614122,2
1752551083,1.421515,1.67621,2
1752551083,1.406207,1.718105,2
1752551083,1.425544,1.656873,2
1752551083,1.440851,1.598814,2
1752551083,1.484408,1.582701,2
1752551083,1.505356,1.567393,2
1752551083,1.473129,1.597203,2
1752551083,1.425544,1.644738,2
1752551083,1.40379,1.681044,2
1752551083,1.435212,1.695546,2
1752551083,1.461044,1.698769,2
1752551083,1.455404,1.70602,2
1752551083,1.448153,1.703603,2
1752551083,1.45057,1.693129,2
1752551083,1.452987,1.685878,2
1752551083,1.467489,1.682655,2
1752551083,1.477963,1.668959,2
1752551083,1.479574,1.67057,2
1752551083,1.487631,1.664124,2
1752551083,1.502133,1.657679,2
1752551083,1.498911,1.65929,2
1752551083,1.506162,1.695546,2
1752551083,1.53436,1.714882,2
1752551083,1.499716,1.71891,2
1752551083,1.487631,1.70038,2
1752551083,1.486825,1.699574,2
1752551083,1.48038,1.739052,2
1752551083,1.473935,1.745498,2
1752551083,1.443269,1.689906,2
1752551083,1.43924,1.681044,2
1752551083,1.40379,1.705214,2
1752551083,1.378009,1.781753,2
1752551083,1.367535,1.757583,2
1752551083,1.337725,1.627819,2
1752551083,1.345782,1.568199,2
1752551083,1.408624,1.55128,2
1752551083,1.463461,1.562559,2
1752551083,1.4691,1.584312,2
1752551083,1.440046,1.59962,2
1752551083,1.424738,1.611705,2
1752551083,1.473935,1.631041,2
1752551083,1.519052,1.653651,2
1752551083,1.53436,1.660902,2
1752551083,1.532749,1.665736,2
1752551083,1.523886,1.656873,2
1752551083,1.509384,1.652039,2
1752551083,1.48038,1.743081,2
1752551083,1.458627,1.697963,2
1752551083,1.472323,1.660096,2
1752551083,1.512607,1.686683,2
1752551083,1.481186,1.730996,2
1752551083,1.489242,1.762417,2
1752551083,1.479574,1.723745,2
1752551083,1.477157,1.66493,2
1752551083,1.440046,1.589146,2
1752551083,1.414264,1.556919,2
1752551083,1.438434,1.560142,2
1752551083,1.499716,1.531138,2
1752551083,1.595592,1.572227,2
1752551083,1.581895,1.60526,2
1752551083,1.463461,1.693129,2
1752551083,1.365924,1.697963,2
1752551083,1.316777,1.651234,2
1752551083,1.332891,1.588341,2
1752551083,1.375592,1.56981,2
1752551083,1.441657,1.621373,2
1752551083,1.479574,1.718105,2
1752551083,1.476351,1.774502,2
1752551083,1.455404,1.725356,2
1752551083,1.432795,1.692323,2
1752551083,1.437629,1.684266,2
1752551083,1.430378,1.672987,2
1752551083,1.424738,1.67621,2
1752551083,1.436017,1.684266,2
1752551083,1.478769,1.695546,2
1752551083,1.515024,1.697157,2
1752551083,1.527109,1.681044,2
1752551083,1.523886,1.655262,2
1752551083,1.548862,1.635875,2
1752551083,1.52872,1.637487,2
1752551083,1.500522,1.645544,2
1752551083,1.470712,1.652845,2
1752551083,1.438434,1.658485,2
1752551083,1.413458,1.657679,2
1752551083,1.407013,1.667347,2
1752551083,1.424738,1.680238,2
1752551083,1.431989,1.687489,2
1752551083,1.443269,1.693935,2
1752551083,1.45057,1.70602,2
1752551083,1.45057,1.708437,2
1752551084,1.463461,1.710854,2
1752551084,1.470712,1.709242,2
1752551084,1.477157,1.704408,2
1752551084,1.48038,1.679432,2
1752551084,1.485214,1.652845,2
1752551084,1.48602,1.638293,2
1752551084,1.48602,1.614122,2
1752551084,1.493271,1.595592,2
1752551084,1.502939,1.67057,2
1752551084,1.502939,1.767251,2
1752551084,1.48038,1.816397,2
1752551084,1.464266,1.783365,2
1752551084,1.448153,1.690712,2
1752551084,1.429572,1.610094,2
1752551084,1.428766,1.535166,2
1752551084,1.410236,1.459432,2
1752551084,1.382037,1.522275,2
1752551084,1.392511,1.593175,2
1752551084,1.434406,1.644738,2
1752551084,1.457821,1.691518,2
1752551084,1.466683,1.71891,2
1752551084,1.454598,1.698769,2
1752551084,1.458627,1.672987,2
1752551084,1.459432,1.671376,2
1752551084,1.47474,1.692323,2
1752551084,1.479574,1.696352,2
1752551084,1.478769,1.689906,2
1752551084,1.473129,1.673793,2
1752551084,1.489242,1.703603,2
1752551084,1.510996,1.76,2
1752551084,1.495688,1.793838,2
1752551084,1.468295,1.779336,2
1752551084,1.441657,1.718105,2
1752551084,1.429572,1.608482,2
1752551084,1.417487,1.521469,2
1752551084,1.434406,1.524692,2
1752551084,1.477157,1.550474,2
1752551084,1.508579,1.584312,2
1752551084,1.51019,1.621373,2
1752551084,1.489242,1.614122,2
1752551084,1.449764,1.627013,2
1752551084,1.392511,1.679432,2
1752551084,1.37398,1.732607,2
1752551084,1.419098,1.760806,2
1752551084,1.470712,1.753554,2
1752551084,1.488437,1.723745,2
1752551084,1.497299,1.693935,2
1752551084,1.492465,1.681044,2
1752551084,1.486825,1.679432,2
1752551084,1.513413,1.678627,2
1752551084,1.535166,1.713271,2
1752551084,1.505356,1.774502,2
1752551084,1.478769,1.767251,2
1752551084,1.4336,1.687489,2
1752551084,1.376397,1.686683,2
1752551084,1.328057,1.699574,2
1752551084,1.319194,1.678627,2
1752551084,1.331279,1.631041,2
1752551084,1.393317,1.576255,2
1752551084,1.442463,1.563365,2
1752551084,1.485214,1.594786,2
1752551084,1.484408,1.614928,2
1752551084,1.493271,1.625402,2
1752551084,1.523886,1.633458,2
1752551084,1.540806,1.642321,2
1752551084,1.52872,1.634264,2
1752551084,1.519052,1.622179,2
1752551084,1.516635,1.614122,2
1752551084,1.523886,1.655262,2
1752551084,1.511801,1.66493,2
1752551084,1.48602,1.650428,2
1752551084,1.463461,1.660902,2
1752551084,1.454598,1.692323,2
1752551084,1.446542,1.718105,2
1752551084,1.454598,1.736635,2
1752551084,1.470712,1.767251,2
1752551084,1.438434,1.766445,2
1752551084,1.451376,1.713271,2
1752551084,1.447347,1.647155,2
1752551084,1.452181,1.601231,2
1752551084,1.448153,1.614122,2
1752551084,1.461044,1.6891,2
1752551084,1.472323,1.771279,2
1752551084,1.445736,1.789004,2
1752551084,1.416681,1.688295,2
1752551084,1.401373,1.585924,2
1752551084,1.43924,1.589952,2
1752551084,1.408624,1.595592,2
1752551084,1.394928,1.60526,2
1752551084,1.400568,1.647961,2
1752551084,1.494882,1.705214,2
1752551084,1.531138,1.697157,2
1752551084,1.522275,1.672181,2
1752551084,1.476351,1.6891,2
1752551084,1.443269,1.697963,2
1752551084,1.424738,1.689906,2
1752551084,1.425544,1.677015,2
1752551084,1.440046,1.669764,2
1752551084,1.472323,1.666541,2
1752551084,1.491659,1.660902,2
1752551084,1.491659,1.658485,2
1752551084,1.483603,1.657679,2
1752551084,1.479574,1.654456,2
1752551084,1.494076,1.651234,2
1752551084,1.500522,1.650428,2
1752551084,1.507773,1.640709,2
1752551084,1.513413,1.640709,2
1752551084,1.502133,1.660902,2
1752551084,1.498911,1.669764,2
1752551084,1.478769,1.666541,2
1752551084,1.447347,1.667347,2
1752551084,1.419098,1.668153,2
1752551084,1.416681,1.672987,2
1752551084,1.4336,1.740664,2
1752551084,1.45057,1.818814,2
1752551084,1.443269,1.8664,2
1752551084,1.427961,1.868011,2
1752551084,1.418293,1.753554,2
1752551084,1.427155,1.598814,2
1752551084,1.416681,1.484408,2
1752551084,1.426349,1.492465,2
1752551084,1.463461,1.544028,2
1752551084,1.490854,1.602843,2
1752551084,1.516635,1.657679,2
1752551084,1.539194,1.624596,2
1752551084,1.524692,1.574644,2
1752551084,1.494076,1.580284,2
1752551084,1.470712,1.590758,2
1752551084,1.460238,1.607677,2
1752551084,1.454598,1.626207,2
1752551084,1.45621,1.640709,2
1752551084,1.457821,1.652039,2
1752551084,1.457015,1.669764,2
1752551084,1.428766,1.679432,2
1752551084,1.394928,1.692323,2
1752551084,1.382843,1.710048,2
1752551084,1.397345,1.71891,2
1752551084,1.419904,1.718105,2
1752551084,1.438434,1.716494,2
1752551084,1.452181,1.706825,2
1752551084,1.471517,1.70038,2
1752551084,1.489242,1.693935,2
1752551084,1.494076,1.680238,2
1752551084,1.500522,1.669764,2
1752551084,1.499716,1.66493,2
1752551084,1.517441,1.672987,2
1752551084,1.523081,1.674598,2
1752551084,1.509384,1.672181,2
1752551084,1.506967,1.66493,2
1752551084,1.496493,1.652039,2
1752551084,1.482797,1.640709,2
1752551084,1.44493,1.638293,2
1752551084,1.413458,1.636681,2
1752551084,1.405402,1.650428,2
1752551084,1.390094,1.658485,2
1752551084,1.387677,1.667347,2
1752551084,1.398956,1.669764,2
1752551084,1.416681,1.678627,2
1752551084,1.4336,1.701991,2
1752551084,1.447347,1.70038,2
1752551084,1.508579,1.669764,2
1752551084,1.520664,1.660902,2
1752551084,1.521469,1.650428,2
1752551084,1.513413,1.643932,2
1752551084,1.490048,1.642321,2
1752551084,1.470712,1.643932,2
1752551084,1.442463,1.650428,2
1752551084,1.423127,1.655262,2
1752551084,1.407013,1.654456,2
1752551084,1.390094,1.660902,2
1752551084,1.386871,1.668959,2
1752551084,1.398151,1.677015,2
1752551084,1.411847,1.682655,2
1752551084,1.431989,1.681044,2
1752551084,1.445736,1.679432,2
1752551084,1.460238,1.677821,2
1752551084,1.479574,1.672181,2
1752551084,1.487631,1.671376,2
1752551084,1.494076,1.665736,2
1752551084,1.503745,1.664124,2
1752551084,1.519858,1.652845,2
1752551084,1.526303,1.643932,2
1752551084,1.527915,1.639098,2
1752551084,1.519052,1.638293,2
1752551084,1.501328,1.641515,2
1752551084,1.477157,1.637487,2
1752551084,1.448153,1.641515,2
1752551084,1.424738,1.646349,2
1752551084,1.406207,1.657679,2
1752551084,1.382843,1.669764,2
1752551084,1.380426,1.674598,2
1752551084,1.40379,1.681849,2
1752551084,1.421515,1.684266,2
1752551084,1.43924,1.679432,2
1752551084,1.446542,1.682655,2
1752551084,1.457015,1.690712,2
1752551084,1.463461,1.702797,2
1752551084,1.461849,1.708437,2
1752551084,1.48038,1.701186,2
1752551084,1.502939,1.682655,2
1752551084,1.519858,1.67621,2
1752551084,1.535972,1.652039,2
1752551084,1.539194,1.638293,2
1752551084,1.52872,1.634264,2
1752551084,1.506162,1.631041,2
1752551084,1.479574,1.632653,2
1752551084,1.442463,1.652039,2
1752551084,1.411847,1.671376,2
1752551084,1.387677,1.684266,2
1752551084,1.369146,1.696352,2
1752551084,1.37398,1.698769,2
1752551084,1.394928,1.693129,2
1752551084,1.417487,1.690712,2
1752551084,1.434406,1.690712,2
1752551084,1.447347,1.6891,2
1752551084,1.463461,1.6891,2
1752551084,1.484408,1.677015,2
1752551084,1.494076,1.669764,2
1752551084,1.500522,1.660096,2
1752551084,1.506967,1.650428,2
1752551084,1.524692,1.640709,2
1752551084,1.535166,1.627819,2
1752551084,1.531138,1.628624,2
1752551084,1.525498,1.622985,2
1752551084,1.507773,1.622179,2
1752551084,1.47474,1.632653,2
1752551084,1.436017,1.644738,2
1752551084,1.414264,1.654456,2
1752551084,1.381231,1.666541,2
1752551084,1.364312,1.674598,2
1752551084,1.373175,1.677015,2
1752551084,1.394122,1.67621,2
1752551084,1.412653,1.680238,2
1752551084,1.428766,1.683461,2
1752551084,1.43924,1.684266,2
1752551084,1.459432,1.681044,2
1752551084,1.479574,1.679432,2
1752551084,1.503745,1.672181,2
1752551084,1.51019,1.672181,2
1752551084,1.531138,1.66493,2
1752551084,1.541611,1.658485,2
1752551084,1.535972,1.647961,2
1752551084,1.529526,1.640709,2
1752551084,1.505356,1.639904,2
1752551084,1.477157,1.635875,2
1752551084,1.430378,1.652845,2
1752551084,1.406207,1.669764,2
1752551084,1.399762,1.677821,2
1752551084,1.386871,1.684266,2
1752551084,1.378009,1.680238,2
1752551084,1.392511,1.671376,2
1752551084,1.394122,1.674598,2
1752551084,1.400568,1.663319,2
1752551084,1.425544,1.660096,2
1752551084,1.452987,1.667347,2
1752551084,1.482797,1.677821,2
1752551084,1.493271,1.671376,2
1752551084,1.506967,1.661707,2
1752551084,1.523886,1.654456,2
1752551084,1.538389,1.650428,2
1752551084,1.553697,1.644738,2
1752551084,1.549668,1.644738,2
1752551084,1.535972,1.647961,2
1752551084,1.506967,1.652039,2
1752551084,1.47474,1.653651,2
1752551084,1.4336,1.656873,2
1752551084,1.406207,1.660902,2
1752551084,1.37398,1.674598,2
1752551084,1.352227,1.678627,2
1752551084,1.361895,1.677821,2
1752551084,1.381231,1.671376,2
1752551084,1.398956,1.665736,2
1752551084,1.422321,1.668153,2
1752551084,1.443269,1.680238,2
1752551084,1.461044,1.681849,2
1752551084,1.489242,1.682655,2
1752551084,1.497299,1.679432,2
1752551084,1.513413,1.67621,2
1752551084,1.524692,1.666541,2
1752551084,1.548057,1.657679,2
1752551084,1.564976,1.654456,2
1752551084,1.562559,1.650428,2
1752551084,1.547251,1.644738,2
1752551084,1.515024,1.647155,2
1752551084,1.481186,1.650428,2
1752551084,1.426349,1.65929,2
1752551084,1.389288,1.660096,2
1752551084,1.357867,1.669764,2
1752551084,1.341753,1.672987,2
1752551084,1.342559,1.67057,2
1752551084,1.365924,1.672181,2
1752551084,1.383648,1.668153,2
1752551084,1.406207,1.661707,2
1752551084,1.440046,1.658485,2
1752551084,1.463461,1.660096,2
1752551084,1.489242,1.65929,2
1752551084,1.502133,1.661707,2
1752551084,1.517441,1.668153,2
1752551084,1.527915,1.67057,2
1752551084,1.552085,1.667347,2
1752551084,1.568199,1.664124,2
1752551084,1.562559,1.658485,2
1752551084,1.55128,1.655262,2
1752551084,1.517441,1.656873,2
1752551084,1.481186,1.646349,2
1752551084,1.431989,1.643932,2
1752551084,1.395734,1.643932,2
1752551084,1.358672,1.647961,2
1752551084,1.331279,1.663319,2
1752551084,1.341753,1.681044,2
1752551084,1.369146,1.692323,2
1752551084,1.386065,1.702797,2
1752551084,1.412653,1.712465,2
1752551084,1.442463,1.723745,2
1752551084,1.465878,1.734218,2
1752551084,1.494076,1.728579,2
1752551084,1.519052,1.705214,2
1752551084,1.53436,1.674598,2
1752551084,1.535166,1.703603,2
1752551084,1.554502,1.726967,2
1752551084,1.548862,1.731801,2
1752551084,1.521469,1.698769,2
1752551084,1.513413,1.651234,2
1752551084,1.498911,1.578672,2
1752551084,1.494882,1.519858,2
1752551084,1.460238,1.518247,2
1752551084,1.427961,1.584312,2
1752551084,1.402179,1.644738,2
1752551084,1.375592,1.674598,2
1752551084,1.364312,1.687489,2
1752551084,1.357061,1.722939,2
1752551084,1.332085,1.728579,2
1752551084,1.348199,1.705214,2
1752551084,1.383648,1.662513,2
1752551084,1.43924,1.643932,2
1752551084,1.497299,1.596397,2
1752551084,1.517441,1.577061,2
1752551084,1.530332,1.587535,2
1752551084,1.535972,1.590758,2
1752551084,1.571421,1.588341,2
1752551084,1.598814,1.583507,2
1752551084,1.596397,1.608482,2
1752551084,1.557725,1.646349,2
1752551084,1.51019,1.696352,2
1752551084,1.465878,1.742275,2
1752551084,1.428766,1.740664,2
1752551084,1.396539,1.717299,2
1752551084,1.344976,1.712465,2
1752551084,1.315166,1.711659,2
1752551084,1.329668,1.705214,2
1752551084,1.357061,1.710048,2
1752551084,1.386871,1.710048,2
1752551084,1.427155,1.714882,2
1752551084,1.459432,1.711659,2
1752551084,1.482797,1.705214,2
1752551084,1.502939,1.697963,2
1752551084,1.508579,1.692323,2
1752551084,1.522275,1.685878,2
1752551084,1.524692,1.677821,2
1752551084,1.543223,1.667347,2
1752551084,1.55853,1.664124,2
1752551084,1.549668,1.661707,2
1752551084,1.531943,1.660902,2
1752551084,1.502133,1.656068,2
1752551084,1.473935,1.650428,2
1752551084,1.427155,1.652039,2
1752551084,1.396539,1.652845,2
1752551084,1.374786,1.655262,2
1752551084,1.352227,1.666541,2
1752551084,1.363507,1.672987,2
1752551084,1.384454,1.685878,2
1752551084,1.399762,1.692323,2
1752551084,1.419904,1.690712,2
1752551084,1.442463,1.687489,2
1752551084,1.466683,1.683461,2
1752551084,1.48602,1.679432,2
1752551084,1.502133,1.677015,2
1752551084,1.515024,1.67057,2
1752551084,1.522275,1.667347,2
1752551084,1.541611,1.657679,2
1752551084,1.549668,1.644738,2
1752551084,1.54,1.668959,2
1752551084,1.523081,1.701991,2
1752551084,1.490048,1.751137,2
1752551084,1.465072,1.762417,2
1752551084,1.42071,1.735024,2
1752551084,1.400568,1.691518,2
1752551084,1.383648,1.646349,2
1752551084,1.365118,1.587535,2
1752551084,1.382843,1.587535,2
1752551084,1.413458,1.601231,2
1752551084,1.443269,1.60526,2
1752551084,1.457015,1.624596,2
1752551084,1.452987,1.635875,2
1752551084,1.435212,1.632653,2
1752551084,1.425544,1.631041,2
1752551084,1.454598,1.643932,2
1752551084,1.498105,1.662513,2
1752551084,1.536777,1.67057,2
1752551084,1.574644,1.682655,2
1752551084,1.579478,1.698769,2
1752551084,1.557725,1.708437,2
1752551084,1.525498,1.693935,2
1752551084,1.490854,1.660096,2
1752551084,1.451376,1.671376,2
1752551084,1.40379,1.684266,2
1752551084,1.364312,1.689906,2
1752551084,1.357061,1.684266,2
1752551084,1.354644,1.677821,2
1752551084,1.3909,1.672181,2
1752551084,1.41507,1.673793,2
1752551084,1.424738,1.67057,2
1752551084,1.436017,1.665736,2
1752551084,1.454598,1.664124,2
1752551084,1.471517,1.663319,2
1752551084,1.485214,1.65929,2
1752551084,1.491659,1.657679,2
1752551084,1.506967,1.656873,2
1752551084,1.515024,1.653651,2
1752551084,1.530332,1.651234,2
1752551084,1.544834,1.639904,2
1752551084,1.536777,1.646349,2
1752551084,1.523886,1.650428,2
1752551084,1.497299,1.660902,2
1752551084,1.473935,1.67621,2
1752551084,1.440046,1.686683,2
1752551084,1.41507,1.683461,2
1752551084,1.388482,1.685072,2
1752551084,1.361895,1.686683,2
1752551084,1.366729,1.687489,2
1752551084,1.383648,1.689906,2
1752551084,1.401373,1.688295,2
1752551084,1.4336,1.678627,2
1752551084,1.452987,1.678627,2
1752551084,1.464266,1.672987,2
1752551084,1.484408,1.665736,2
1752551084,1.491659,1.657679,2
1752551084,1.501328,1.652845,2
1752551084,1.508579,1.647155,2
1752551084,1.517441,1.643932,2
1752551084,1.535972,1.639098,2
1752551084,1.531138,1.634264,2
1752551084,1.518247,1.637487,2
1752551084,1.495688,1.644738,2
1752551084,1.472323,1.651234,2
1752551084,1.427961,1.662513,2
1752551084,1.40943,1.67057,2
1752551084,1.3909,1.685072,2
1752551084,1.380426,1.697157,2
1752551084,1.392511,1.701991,2
1752551084,1.411041,1.705214,2
1752551084,1.424738,1.701991,2
1752551084,1.438434,1.703603,2
1752551084,1.448958,1.70602,2
1752551084,1.464266,1.701991,2
1752551084,1.479574,1.693935,2
1752551084,1.492465,1.682655,2
1752551084,1.495688,1.67057,2
1752551084,1.505356,1.655262,2
1752551084,1.521469,1.647961,2
1752551084,1.535166,1.641515,2
1752551084,1.522275,1.636681,2
1752551084,1.510996,1.635875,2
1752551084,1.486825,1.643932,2
1752551084,1.461044,1.652845,2
1752551084,1.428766,1.664124,2
1752551084,1.413458,1.671376,2
1752551084,1.398151,1.678627,2
1752551084,1.389288,1.686683,2
1752551084,1.395734,1.685072,2
1752551084,1.412653,1.726162,2
1752551084,1.423932,1.764028,2
1752551084,1.434406,1.787393,2
1752551084,1.452181,1.768057,2
1752551084,1.467489,1.718105,2
1752551084,1.477963,1.658485,2
1752551084,1.486825,1.602037,2
1752551084,1.498105,1.55853,2
1752551084,1.506967,1.577867,2
1752551084,1.527915,1.593175,2
1752551084,1.540806,1.606066,2
1752551084,1.527915,1.611705,2
1752551084,1.502133,1.613317,2
1752551084,1.457015,1.613317,2
1752551084,1.442463,1.625402,2
1752551084,1.424738,1.63507,2
1752551084,1.41507,1.647961,2
1752551084,1.400568,1.658485,2
1752551084,1.387677,1.672987,2
1752551084,1.398956,1.67621,2
1752551084,1.415875,1.681849,2
1752551084,1.424738,1.685878,2
1752551084,1.453793,1.689906,2
1752551084,1.482797,1.683461,2
1752551084,1.486825,1.682655,2
1752551084,1.497299,1.677015,2
1752551084,1.50455,1.67057,2
1752551084,1.516635,1.661707,2
1752551084,1.521469,1.660902,2
1752551084,1.510996,1.661707,2
1752551084,1.497299,1.657679,2
1752551084,1.486825,1.657679,2
1752551084,1.458627,1.662513,2
1752551084,1.434406,1.667347,2
1752551084,1.40943,1.67621,2
1752551084,1.400568,1.674598,2
1752551084,1.3909,1.672987,2
1752551084,1.400568,1.672987,2
1752551084,1.418293,1.672987,2
1752551084,1.426349,1.672987,2
1752551084,1.440851,1.677821,2
1752551084,1.448153,1.679432,2
1752551084,1.466683,1.673793,2
1752551084,1.484408,1.666541,2
1752551084,1.490854,1.663319,2
1752551084,1.492465,1.664124,2
1752551084,1.502133,1.655262,2
1752551084,1.511801,1.651234,2
1752551084,1.512607,1.645544,2
1752551084,1.509384,1.645544,2
1752551084,1.499716,1.641515,2
1752551084,1.484408,1.644738,2
1752551084,1.464266,1.651234,2
1752551084,1.432795,1.656873,2
1752551084,1.415875,1.661707,2
1752551084,1.405402,1.668153,2
1752551084,1.394122,1.665736,2
1752551084,1.407819,1.666541,2
1752551084,1.42071,1.668959,2
1752551084,1.434406,1.668153,2
1752551084,1.446542,1.666541,2
1752551084,1.457015,1.67621,2
1752551084,1.465878,1.684266,2
1752551084,1.47474,1.681044,2
1752551084,1.477963,1.684266,2
1752551084,1.481186,1.6891,2
1752551084,1.490048,1.692323,2
1752551084,1.508579,1.680238,2
1752551084,1.521469,1.669764,2
1752551084,1.517441,1.660096,2
1752551084,1.502939,1.652039,2
1752551084,1.48038,1.647155,2
1752551084,1.461044,1.652845,2
1752551084,1.435212,1.656873,2
1752551084,1.418293,1.665736,2
1752551084,1.407013,1.673793,2
1752551084,1.3909,1.688295,2
1752551084,1.399762,1.697157,2
1752551084,1.415875,1.703603,2
1752551084,1.430378,1.705214,2
1752551084,1.444124,1.702797,2
1752551084,1.457821,1.699574,2
1752551084,1.468295,1.699574,2
1752551084,1.481186,1.695546,2
1752551084,1.493271,1.687489,2
1752551084,1.503745,1.680238,2
1752551084,1.508579,1.672181,2
1752551084,1.511801,1.652845,2
1752551084,1.511801,1.647961,2
1752551084,1.513413,1.646349,2
1752551084,1.490048,1.645544,2
1752551084,1.460238,1.650428,2
1752551084,1.442463,1.646349,2
1752551084,1.42071,1.635875,2
1752551084,1.416681,1.637487,2
1752551084,1.405402,1.641515,2
1752551084,1.394928,1.645544,2
1752551084,1.398151,1.643932,2
1752551084,1.407819,1.650428,2
1752551084,1.426349,1.655262,2
1752551084,1.440851,1.663319,2
1752551084,1.451376,1.663319,2
1752551084,1.471517,1.662513,2
1752551084,1.485214,1.65929,2
1752551084,1.492465,1.661707,2
1752551084,1.497299,1.665736,2
1752551084,1.503745,1.65929,2
1752551084,1.523081,1.652845,2
1752551084,1.526303,1.638293,2
1752551084,1.51019,1.628624,2
1752551084,1.502133,1.62943,2
1752551084,1.486825,1.63507,2
1752551084,1.451376,1.643126,2
1752551084,1.426349,1.652039,2
1752551084,1.40943,1.660096,2
1752551084,1.402985,1.669764,2
1752551084,1.400568,1.668153,2
1752551084,1.41507,1.66493,2
1752551084,1.42071,1.671376,2
1752551084,1.436017,1.679432,2
1752551084,1.448958,1.681044,2
1752551084,1.460238,1.681044,2
1752551084,1.43924,1.653651,2
1752551084,1.407013,1.666541,2
1752551085,1.400568,1.669764,2
1752551085,1.402985,1.667347,2
1752551085,1.417487,1.668959,2
1752551085,1.428766,1.67057,2
1752551085,1.43924,1.67057,2
1752551085,1.454598,1.67057,2
1752551085,1.464266,1.668153,2
1752551085,1.476351,1.668153,2
1752551085,1.485214,1.666541,2
1752551085,1.491659,1.661707,2
1752551085,1.493271,1.664124,2
1752551085,1.506162,1.660096,2
1752551085,1.511801,1.654456,2
1752551085,1.509384,1.654456,2
1752551085,1.499716,1.652845,2
1752551085,1.484408,1.650428,2
1752551085,1.467489,1.652845,2
1752551085,1.442463,1.660902,2
1752551085,1.427155,1.666541,2
1752551085,1.415875,1.67057,2
1752551085,1.40379,1.678627,2
1752551085,1.408624,1.67621,2
1752551085,1.419904,1.679432,2
1752551085,1.428766,1.681849,2
1752551085,1.440046,1.682655,2
1752551085,1.452987,1.682655,2
1752551085,1.459432,1.679432,2
1752551085,1.47474,1.677821,2
1752551085,1.48038,1.675404,2
1752551085,1.490854,1.671376,2
1752551085,1.492465,1.661707,2
1752551085,1.502939,1.656873,2
1752551085,1.510996,1.650428,2
1752551085,1.506967,1.644738,2
1752551085,1.497299,1.643932,2
1752551085,1.479574,1.647961,2
1752551085,1.464266,1.650428,2
1752551085,1.44493,1.655262,2
1752551085,1.427961,1.657679,2
1752551085,1.415875,1.661707,2
1752551085,1.402179,1.673793,2
1752551085,1.407819,1.67621,2
1752551085,1.416681,1.674598,2
1752551085,1.427155,1.678627,2
1752551085,1.43924,1.678627,2
1752551085,1.45057,1.682655,2
1752551085,1.461044,1.682655,2
1752551085,1.476351,1.674598,2
1752551085,1.481186,1.675404,2
1752551085,1.490854,1.672987,2
1752551085,1.487631,1.67057,2
1752551085,1.502133,1.667347,2
1752551085,1.508579,1.660902,2
1752551085,1.506162,1.656873,2
1752551085,1.496493,1.650428,2
1752551085,1.48602,1.643932,2
1752551085,1.452181,1.650428,2
1752551085,1.430378,1.660902,2
1752551085,1.419098,1.666541,2
1752551085,1.407013,1.674598,2
1752551085,1.413458,1.678627,2
1752551085,1.425544,1.685072,2
1752551085,1.432795,1.688295,2
1752551085,1.442463,1.687489,2
1752551085,1.453793,1.687489,2
1752551085,1.461044,1.685072,2
1752551085,1.476351,1.680238,2
1752551085,1.48038,1.681044,2
1752551085,1.488437,1.677015,2
1752551085,1.490048,1.668153,2
1752551085,1.499716,1.65929,2
1752551085,1.508579,1.647961,2
1752551085,1.506967,1.641515,2
1752551085,1.500522,1.640709,2
1752551085,1.48602,1.640709,2
1752551085,1.469906,1.647961,2
1752551085,1.448958,1.664124,2
1752551085,1.429572,1.673793,2
1752551085,1.41507,1.681044,2
1752551085,1.401373,1.687489,2
1752551085,1.401373,1.693129,2
1752551085,1.407819,1.697963,2
1752551085,1.419098,1.698769,2
1752551085,1.435212,1.6891,2
1752551085,1.452987,1.685072,2
1752551085,1.464266,1.680238,2
1752551085,1.47474,1.677015,2
1752551085,1.482797,1.674598,2
1752551085,1.490854,1.673793,2
1752551085,1.494076,1.669764,2
1752551085,1.502939,1.658485,2
1752551085,1.51019,1.650428,2
1752551085,1.507773,1.641515,2
1752551085,1.500522,1.642321,2
1752551085,1.482797,1.639098,2
1752551085,1.476351,1.635875,2
1752551085,1.453793,1.639904,2
1752551085,1.447347,1.651234,2
1752551085,1.4336,1.669764,2
1752551085,1.419098,1.691518,2
1752551085,1.427155,1.696352,2
1752551085,1.42071,1.70602,2
1752551085,1.416681,1.716494,2
1752551085,1.413458,1.716494,2
1752551085,1.422321,1.70602,2
1752551085,1.432795,1.696352,2
1752551085,1.461044,1.688295,2
1752551085,1.479574,1.678627,2
1752551085,1.489242,1.668959,2
1752551085,1.490854,1.658485,2
1752551085,1.502133,1.650428,2
1752551085,1.506967,1.641515,2
1752551085,1.510996,1.639904,2
1752551085,1.503745,1.639904,2
1752551085,1.484408,1.644738,2
1752551085,1.468295,1.650428,2
1752551085,1.445736,1.654456,2
1752551085,1.430378,1.660902,2
1752551085,1.419098,1.66493,2
1752551085,1.410236,1.672181,2
1752551085,1.415875,1.679432,2
1752551085,1.427155,1.683461,2
1752551085,1.435212,1.686683,2
1752551085,1.443269,1.687489,2
1752551085,1.457015,1.691518,2
1752551085,1.468295,1.685878,2
1752551085,1.478769,1.683461,2
1752551085,1.485214,1.678627,2
1752551085,1.489242,1.677015,2
1752551085,1.496493,1.664124,2
1752551085,1.502939,1.650428,2
1752551085,1.508579,1.640709,2
1752551085,1.503745,1.634264,2
1752551085,1.497299,1.636681,2
1752551085,1.481991,1.635875,2
1752551085,1.465878,1.635875,2
1752551085,1.440046,1.643932,2
1752551085,1.424738,1.655262,2
1752551085,1.419904,1.660902,2
1752551085,1.400568,1.67057,2
1752551085,1.408624,1.673793,2
1752551085,1.419098,1.67621,2
1752551085,1.429572,1.682655,2
1752551085,1.434406,1.691518,2
1752551085,1.438434,1.706825,2
1752551085,1.440046,1.710048,2
1752551085,1.457821,1.704408,2
1752551085,1.477157,1.70038,2
1752551085,1.490854,1.695546,2
1752551085,1.497299,1.685878,2
1752551085,1.51019,1.673793,2
1752551085,1.518247,1.654456,2
1752551085,1.512607,1.644738,2
1752551085,1.50455,1.645544,2
1752551085,1.486825,1.646349,2
1752551085,1.471517,1.643932,2
1752551085,1.444124,1.647961,2
1752551085,1.429572,1.656873,2
1752551085,1.416681,1.662513,2
1752551085,1.408624,1.669764,2
1752551085,1.416681,1.667347,2
1752551085,1.427961,1.665736,2
1752551085,1.434406,1.66493,2
1752551085,1.443269,1.67057,2
1752551085,1.452181,1.672181,2
1752551085,1.463461,1.672181,2
1752551085,1.467489,1.669764,2
1752551085,1.472323,1.666541,2
1752551085,1.494076,1.65929,2
1752551085,1.496493,1.65929,2
1752551085,1.498911,1.653651,2
1752551085,1.498911,1.640709,2
1752551085,1.492465,1.645544,2
1752551085,1.494076,1.642321,2
1752551085,1.481186,1.643126,2
1752551085,1.466683,1.646349,2
1752551085,1.43924,1.653651,2
1752551085,1.421515,1.660902,2
1752551085,1.40943,1.668153,2
1752551085,1.402179,1.672987,2
1752551085,1.408624,1.67621,2
1752551085,1.411847,1.678627,2
1752551085,1.422321,1.679432,2
1752551085,1.438434,1.673793,2
1752551085,1.451376,1.67621,2
1752551085,1.465072,1.672987,2
1752551085,1.484408,1.67057,2
1752551085,1.487631,1.664124,2
1752551085,1.495688,1.664124,2
1752551085,1.501328,1.660902,2
1752551085,1.516635,1.645544,2
1752551085,1.519858,1.639098,2
1752551085,1.511801,1.642321,2
1752551085,1.502133,1.641515,2
1752551085,1.478769,1.642321,2
1752551085,1.463461,1.644738,2
1752551085,1.438434,1.646349,2
1752551085,1.419098,1.652039,2
1752551085,1.411847,1.658485,2
1752551085,1.397345,1.661707,2
1752551085,1.405402,1.663319,2
1752551085,1.41507,1.667347,2
1752551085,1.427961,1.672181,2
1752551085,1.443269,1.672987,2
1752551085,1.45057,1.669764,2
1752551085,1.461849,1.672987,2
1752551085,1.47474,1.683461,2
1752551085,1.487631,1.689906,2
1752551085,1.493271,1.691518,2
1752551085,1.50455,1.684266,2
1752551085,1.516635,1.673793,2
1752551085,1.525498,1.660096,2
1752551085,1.512607,1.652039,2
1752551085,1.498105,1.651234,2
1752551085,1.485214,1.645544,2
1752551085,1.470712,1.643932,2
1752551085,1.438434,1.639904,2
1752551085,1.419098,1.639098,2
1752551085,1.41507,1.644738,2
1752551085,1.406207,1.646349,2
1752551085,1.419098,1.639904,2
1752551085,1.427155,1.638293,2
1752551085,1.431989,1.663319,2
1752551085,1.4336,1.687489,2
1752551085,1.440046,1.701186,2
1752551085,1.44493,1.699574,2
1752551085,1.435212,1.70038,2
1752551085,1.452987,1.695546,2
1752551085,1.465878,1.685072,2
1752551085,1.491659,1.671376,2
1752551085,1.515024,1.65929,2
1752551085,1.535166,1.647961,2
1752551085,1.535166,1.637487,2
1752551085,1.524692,1.626207,2
1752551085,1.500522,1.627819,2
1752551085,1.476351,1.635875,2
1752551085,1.444124,1.644738,2
1752551085,1.424738,1.656873,2
1752551085,1.395734,1.684266,2
1752551085,1.377203,1.698769,2
1752551085,1.390094,1.710048,2
1752551085,1.402985,1.719716,2
1752551085,1.42071,1.721327,2
1752551085,1.436017,1.716494,2
1752551085,1.453793,1.710854,2
1752551085,1.472323,1.702797,2
1752551085,1.487631,1.6891,2
1752551085,1.500522,1.674598,2
1752551085,1.51019,1.652845,2
1752551085,1.513413,1.639904,2
1752551085,1.522275,1.640709,2
1752551085,1.524692,1.640709,2
1752551085,1.511801,1.62943,2
1752551085,1.486825,1.627819,2
1752551085,1.468295,1.637487,2
1752551085,1.464266,1.645544,2
1752551085,1.423127,1.669764,2
1752551085,1.405402,1.685878,2
1752551085,1.383648,1.70038,2
1752551085,1.373175,1.701991,2
1752551085,1.390094,1.693935,2
1752551085,1.411847,1.6891,2
1752551085,1.425544,1.683461,2
1752551085,1.43924,1.681044,2
1752551085,1.451376,1.684266,2
1752551085,1.467489,1.685072,2
1752551085,1.483603,1.684266,2
1752551085,1.496493,1.672987,2
1752551085,1.508579,1.663319,2
1752551085,1.516635,1.650428,2
1752551085,1.531138,1.639098,2
1752551085,1.538389,1.633458,2
1752551085,1.525498,1.62943,2
1752551085,1.51019,1.634264,2
1752551085,1.486825,1.641515,2
1752551085,1.460238,1.654456,2
1752551085,1.428766,1.660902,2
1752551085,1.412653,1.667347,2
1752551085,1.387677,1.672987,2
1752551085,1.374786,1.67057,2
1752551085,1.388482,1.669764,2
1752551085,1.40379,1.669764,2
1752551085,1.421515,1.667347,2
1752551085,1.43924,1.667347,2
1752551085,1.452987,1.67057,2
1752551085,1.469906,1.668153,2
1752551085,1.487631,1.666541,2
1752551085,1.498105,1.668959,2
1752551085,1.508579,1.671376,2
1752551085,1.519858,1.671376,2
1752551085,1.531943,1.666541,2
1752551085,1.538389,1.663319,2
1752551085,1.523886,1.656873,2
1752551085,1.510996,1.651234,2
1752551085,1.482797,1.639904,2
1752551085,1.460238,1.637487,2
1752551085,1.417487,1.646349,2
1752551085,1.397345,1.653651,2
1752551085,1.37398,1.661707,2
1752551085,1.364312,1.671376,2
1752551085,1.386871,1.674598,2
1752551085,1.40379,1.677015,2
1752551085,1.419098,1.684266,2
1752551085,1.4336,1.684266,2
1752551085,1.453793,1.678627,2
1752551085,1.477157,1.669764,2
1752551085,1.494882,1.658485,2
1752551085,1.51019,1.643932,2
1752551085,1.510996,1.636681,2
1752551085,1.524692,1.630236,2
1752551085,1.53436,1.647155,2
1752551085,1.538389,1.653651,2
1752551085,1.515024,1.647961,2
1752551085,1.482797,1.639098,2
1752551085,1.460238,1.643126,2
1752551085,1.423127,1.652039,2
1752551085,1.399762,1.661707,2
1752551085,1.374786,1.677015,2
1752551085,1.360284,1.696352,2
1752551085,1.37962,1.706825,2
1752551085,1.398151,1.714076,2
1752551085,1.413458,1.708437,2
1752551085,1.436017,1.701991,2
1752551085,1.453793,1.693129,2
1752551085,1.473935,1.6891,2
1752551085,1.487631,1.685878,2
1752551085,1.498911,1.683461,2
1752551085,1.509384,1.683461,2
1752551085,1.523886,1.678627,2
1752551085,1.542417,1.668153,2
1752551085,1.552085,1.657679,2
1752551085,1.535166,1.647155,2
1752551085,1.519052,1.639904,2
1752551085,1.490048,1.63507,2
1752551085,1.457015,1.638293,2
1752551085,1.423932,1.642321,2
1752551085,1.400568,1.647961,2
1752551085,1.381231,1.661707,2
1752551085,1.364312,1.67057,2
1752551085,1.380426,1.677821,2
1752551085,1.393317,1.685072,2
1752551085,1.407819,1.691518,2
1752551085,1.429572,1.690712,2
1752551085,1.45057,1.688295,2
1752551085,1.471517,1.682655,2
1752551085,1.48602,1.677015,2
1752551085,1.498105,1.672987,2
1752551085,1.509384,1.667347,2
1752551085,1.522275,1.661707,2
1752551085,1.539194,1.656068,2
1752551085,1.543223,1.647155,2
1752551085,1.531943,1.643932,2
1752551085,1.508579,1.647155,2
1752551085,1.482797,1.647155,2
1752551085,1.452181,1.646349,2
1752551085,1.419904,1.647155,2
1752551085,1.40379,1.651234,2
1752551085,1.382843,1.660096,2
1752551085,1.374786,1.666541,2
1752551085,1.392511,1.675404,2
1752551085,1.406207,1.682655,2
1752551085,1.42071,1.685878,2
1752551085,1.43924,1.691518,2
1752551085,1.458627,1.690712,2
1752551085,1.473129,1.685072,2
1752551085,1.492465,1.683461,2
1752551085,1.501328,1.673793,2
1752551085,1.509384,1.660096,2
1752551085,1.518247,1.644738,2
1752551085,1.524692,1.642321,2
1752551085,1.519858,1.643932,2
1752551085,1.519052,1.646349,2
1752551085,1.498105,1.647961,2
1752551085,1.479574,1.651234,2
1752551085,1.454598,1.642321,2
1752551085,1.425544,1.633458,2
1752551085,1.410236,1.62943,2
1752551085,1.394122,1.637487,2
1752551085,1.383648,1.643932,2
1752551085,1.399762,1.660096,2
1752551085,1.411847,1.684266,2
1752551085,1.416681,1.701991,2
1752551085,1.426349,1.709242,2
1752551085,1.435212,1.716494,2
1752551085,1.463461,1.711659,2
1752551085,1.489242,1.703603,2
1752551085,1.502133,1.70038,2
1752551085,1.508579,1.687489,2
1752551085,1.516635,1.67621,2
1752551085,1.531138,1.66493,2
1752551085,1.530332,1.655262,2
1752551085,1.522275,1.647155,2
1752551085,1.501328,1.641515,2
1752551085,1.48038,1.639098,2
1752551085,1.451376,1.643932,2
1752551085,1.425544,1.641515,2
1752551085,1.406207,1.652039,2
1752551085,1.392511,1.658485,2
1752551085,1.386065,1.671376,2
1752551085,1.401373,1.674598,2
1752551085,1.416681,1.677015,2
1752551085,1.427961,1.678627,2
1752551085,1.440046,1.682655,2
1752551085,1.457821,1.683461,2
1752551085,1.473935,1.67621,2
1752551085,1.490854,1.666541,2
1752551085,1.495688,1.662513,2
1752551085,1.499716,1.658485,2
1752551085,1.506162,1.654456,2
1752551085,1.515024,1.661707,2
1752551085,1.510996,1.663319,2
1752551085,1.508579,1.654456,2
1752551085,1.495688,1.639904,2
1752551085,1.477963,1.635875,2
1752551085,1.452181,1.640709,2
1752551085,1.427961,1.647961,2
1752551085,1.411847,1.656873,2
1752551085,1.390094,1.67057,2
1752551085,1.37962,1.672181,2
1752551085,1.401373,1.677821,2
1752551085,1.418293,1.685878,2
1752551085,1.431989,1.6891,2
1752551085,1.441657,1.683461,2
1752551085,1.455404,1.677821,2
1752551085,1.471517,1.673793,2
1752551085,1.484408,1.669764,2
1752551085,1.495688,1.667347,2
1752551085,1.502133,1.660096,2
1752551085,1.512607,1.647155,2
1752551085,1.517441,1.63507,2
1752551085,1.518247,1.628624,2
1752551085,1.510996,1.624596,2
1752551085,1.497299,1.627013,2
1752551085,1.473935,1.643932,2
1752551085,1.45057,1.656873,2
1752551085,1.423127,1.667347,2
1752551085,1.412653,1.67621,2
1752551085,1.40379,1.683461,2
1752551085,1.398956,1.686683,2
1752551085,1.413458,1.685878,2
1752551085,1.424738,1.686683,2
1752551085,1.437629,1.6891,2
1752551085,1.45057,1.692323,2
1752551085,1.460238,1.692323,2
1752551085,1.469906,1.686683,2
1752551085,1.481186,1.679432,2
1752551085,1.496493,1.677015,2
1752551085,1.498911,1.672987,2
1752551085,1.506967,1.667347,2
1752551085,1.510996,1.65929,2
1752551085,1.515024,1.656873,2
1752551085,1.511801,1.646349,2
1752551085,1.497299,1.645544,2
1752551085,1.477157,1.643932,2
1752551085,1.455404,1.646349,2
1752551085,1.431183,1.655262,2
1752551085,1.423127,1.66493,2
1752551085,1.414264,1.681044,2
1752551085,1.393317,1.685878,2
1752551085,1.388482,1.689906,2
1752551085,1.406207,1.681044,2
1752551085,1.407819,1.677821,2
1752551085,1.421515,1.677821,2
1752551085,1.446542,1.67057,2
1752551085,1.465072,1.669764,2
1752551085,1.482797,1.657679,2
1752551085,1.493271,1.647155,2
1752551085,1.497299,1.654456,2
1752551085,1.509384,1.658485,2
1752551085,1.519052,1.658485,2
1752551085,1.521469,1.660096,2
1752551085,1.506162,1.658485,2
1752551085,1.489242,1.656873,2
1752551085,1.473129,1.653651,2
1752551085,1.455404,1.65929,2
1752551085,1.436017,1.664124,2
1752551085,1.418293,1.672181,2
1752551085,1.406207,1.673793,2
1752551085,1.398956,1.67621,2
1752551085,1.412653,1.677821,2
1752551085,1.428766,1.675404,2
1752551085,1.43924,1.677015,2
1752551085,1.451376,1.671376,2
1752551085,1.465878,1.665736,2
1752551085,1.483603,1.664124,2
1752551085,1.492465,1.674598,2
1752551085,1.500522,1.673793,2
1752551085,1.499716,1.679432,2
1752551085,1.502939,1.674598,2
1752551085,1.489242,1.664124,2
1752551085,1.482797,1.660096,2
1752551085,1.499716,1.652845,2
1752551085,1.495688,1.640709,2
1752551085,1.455404,1.631847,2
1752551085,1.422321,1.637487,2
1752551085,1.423127,1.651234,2
1752551085,1.421515,1.679432,2
1752551085,1.412653,1.719716,2
1752551085,1.412653,1.723745,2
1752551085,1.432795,1.6891,2
1752551085,1.431989,1.682655,2
1752551085,1.421515,1.660096,2
1752551085,1.427155,1.657679,2
1752551085,1.445736,1.635875,2
1752551085,1.475546,1.637487,2
1752551085,1.498105,1.656873,2
1752551085,1.476351,1.695546,2
1752551085,1.452181,1.714882,2
1752551085,1.482797,1.686683,2
1752551085,1.461044,1.722939,2
1752551085,1.426349,1.737441,2
1752551085,1.422321,1.722133,2
1752551085,1.406207,1.702797,2
1752551085,1.445736,1.701186,2
1752551085,1.471517,1.683461,2
1752551085,1.457015,1.671376,2
1752551085,1.432795,1.669764,2
1752551085,1.434406,1.664124,2
1752551085,1.451376,1.663319,2
1752551085,1.461849,1.658485,2
1752551085,1.464266,1.656873,2
1752551085,1.458627,1.665736,2
1752551085,1.455404,1.672181,2
1752551085,1.471517,1.678627,2
1752551085,1.48602,1.672181,2
1752551085,1.496493,1.669764,2
1752551085,1.502939,1.666541,2
1752551085,1.506162,1.665736,2
1752551085,1.506967,1.66493,2
1752551085,1.506967,1.662513,2
1752551085,1.493271,1.653651,2
1752551085,1.48038,1.655262,2
1752551085,1.459432,1.658485,2
1752551085,1.447347,1.660096,2
1752551085,1.426349,1.666541,2
1752551085,1.416681,1.672987,2
1752551085,1.410236,1.675404,2
1752551085,1.421515,1.67057,2
1752551085,1.430378,1.67057,2
1752551085,1.436017,1.674598,2
1752551085,1.44493,1.680238,2
1752551085,1.452181,1.687489,2
1752551085,1.453793,1.695546,2
1752551085,1.455404,1.698769,2
1752551085,1.477963,1.687489,2
1752551085,1.490854,1.682655,2
1752551085,1.496493,1.665736,2
1752551085,1.498911,1.672181,2
1752551085,1.505356,1.677821,2
1752551085,1.503745,1.674598,2
1752551085,1.484408,1.660902,2
1752551085,1.470712,1.631041,2
1752551085,1.459432,1.618956,2
1752551085,1.43924,1.597203,2
1752551085,1.442463,1.614122,2
1752551085,1.448958,1.651234,2
1752551085,1.435212,1.684266,2
1752551085,1.423127,1.714882,2
1752551085,1.405402,1.688295,2
1752551085,1.415875,1.677015,2
1752551085,1.43924,1.681044,2
1752551085,1.467489,1.685878,2
1752551085,1.471517,1.715688,2
1752551085,1.478769,1.777725,2
1752551085,1.491659,1.779336,2
1752551085,1.506967,1.645544,2
1752551085,1.506162,1.588341,2
1752551085,1.469906,1.598814,2
1752551085,1.437629,1.619762,2
1752551085,1.415875,1.628624,2
1752551085,1.415875,1.627013,2
1752551085,1.451376,1.63507,2
1752551085,1.477157,1.641515,2
1752551085,1.496493,1.647961,2
1752551085,1.468295,1.684266,2
1752551085,1.428766,1.737441,2
1752551085,1.490048,1.792227,2
1752551085,1.478769,1.813175,2
1752551085,1.43924,1.808341,2
1752551085,1.445736,1.767251,2
1752551085,1.445736,1.721327,2
1752551085,1.421515,1.652039,2
1752551085,1.386871,1.574644,2
1752551085,1.40943,1.473935,2
1752551085,1.502133,1.461044,2
1752551085,1.510996,1.585924,2
1752551085,1.493271,1.652845,2
1752551085,1.506162,1.764028,2
1752551085,1.516635,1.831705,2
1752551085,1.505356,1.785782,2
1752551085,1.490854,1.680238,2
1752551085,1.459432,1.608482,2
1752551085,1.41507,1.550474,2
1752551085,1.396539,1.458627,2
1752551085,1.398956,1.467489,2
1752551085,1.393317,1.519858,2
1752551085,1.416681,1.55853,2
1752551085,1.452987,1.596397,2
1752551085,1.463461,1.627819,2
1752551085,1.493271,1.67621,2
1752551085,1.472323,1.697963,2
1752551085,1.435212,1.723745,2
1752551085,1.436017,1.698769,2
1752551085,1.482797,1.666541,2
1752551085,1.483603,1.690712,2
1752551085,1.453793,1.705214,2
1752551085,1.455404,1.702797,2
1752551086,1.481186,1.692323,2
1752551086,1.506162,1.678627,2
1752551086,1.519052,1.673793,2
1752551086,1.518247,1.679432,2
1752551086,1.494882,1.677821,2
1752551086,1.47474,1.677015,2
1752551086,1.452181,1.677821,2
1752551086,1.437629,1.678627,2
1752551086,1.426349,1.666541,2
1752551086,1.418293,1.656873,2
1752551086,1.427961,1.645544,2
1752551086,1.434406,1.647155,2
1752551086,1.444124,1.655262,2
1752551086,1.457015,1.678627,2
1752551086,1.448958,1.715688,2
1752551086,1.455404,1.72455,2
1752551086,1.466683,1.715688,2
1752551086,1.487631,1.712465,2
1752551086,1.51019,1.709242,2
1752551086,1.497299,1.701991,2
1752551086,1.48602,1.6891,2
1752551086,1.493271,1.672181,2
1752551086,1.490048,1.652845,2
1752551086,1.469906,1.643932,2
1752551086,1.452181,1.651234,2
1752551086,1.449764,1.654456,2
1752551086,1.430378,1.668153,2
1752551086,1.419098,1.685878,2
1752551086,1.411847,1.682655,2
1752551086,1.401373,1.67057,2
1752551086,1.415875,1.66493,2
1752551086,1.435212,1.660902,2
1752551086,1.436823,1.660096,2
1752551086,1.44493,1.672181,2
1752551086,1.469906,1.679432,2
1752551086,1.477157,1.685072,2
1752551086,1.48602,1.686683,2
1752551086,1.496493,1.690712,2
1752551086,1.495688,1.684266,2
1752551086,1.502939,1.683461,2
1752551086,1.516635,1.67057,2
1752551086,1.519052,1.667347,2
1752551086,1.547251,1.665736,2
1752551086,1.521469,1.661707,2
1752551086,1.497299,1.665736,2
1752551086,1.471517,1.677015,2
1752551086,1.43924,1.711659,2
1752551086,1.414264,1.773696,2
1752551086,1.363507,1.793033,2
1752551086,1.357867,1.738247,2
1752551086,1.370758,1.669764,2
1752551086,1.393317,1.611705,2
1752551086,1.422321,1.637487,2
1752551086,1.498105,1.76,2
1752551086,1.516635,1.848624,2
1752551086,1.529526,1.835734,2
1752551086,1.538389,1.763223,2
1752551086,1.537583,1.633458,2
1752551086,1.48602,1.548862,2
1752551086,1.370758,1.476351,2
1752551086,1.369146,1.465878,2
1752551086,1.400568,1.494076,2
