timestamp,v1,v2,label
1752551001.0883896,1.525498,1.446542,1
1752551001.0903845,1.486825,1.603648,1
1752551001.0938058,1.390094,1.747915,1
1752551001.0963671,1.357061,1.845402,1
1752551001.0963671,1.40379,1.858343,1
1752551001.0963671,1.445736,1.780142,1
1752551001.0963671,1.429572,1.728579,1
1752551001.097365,1.527915,1.66493,1
1752551001.097365,1.529526,1.733413,1
1752551001.097365,1.543223,1.638293,1
1752551001.097365,1.526303,1.603648,1
1752551001.0983622,1.452987,1.693129,1
1752551001.0983622,1.407819,1.646349,1
1752551001.0983622,1.378009,1.618956,1
1752551001.0983622,1.361895,1.693129,1
1752551001.099359,1.381231,1.925214,1
1752551001.099359,1.487631,1.911518,1
1752551001.099359,1.600426,1.321611,1
1752551001.100356,1.561753,1.419904,1
1752551001.1113272,1.463461,1.653651,1
1752551001.1143198,1.486825,1.577867,1
1752551001.1213005,1.466683,1.542417,1
1752551001.1242936,1.423127,1.833317,1
1752551001.1332695,1.34417,1.772891,1
1752551001.1362612,1.410236,1.696352,1
1752551001.1382554,1.445736,1.682655,1
1752551001.141249,1.481186,1.684266,1
1752551001.141249,1.499716,1.761611,1
1752551001.141249,1.531943,1.72455,1
1752551001.141249,1.556919,1.675404,1
1752551001.1422453,1.519052,1.535972,1
1752551001.1422453,1.438434,1.656068,1
1752551001.1422453,1.370758,1.762417,1
1752551001.1422453,1.388482,1.682655,1
1752551001.143274,1.386065,1.535972,1
1752551001.143274,1.442463,1.644738,1
1752551001.143274,1.519858,1.638293,1
1752551001.143274,1.506162,1.695546,1
1752551001.14424,1.540806,1.719716,1
1752551001.14424,1.530332,1.793033,1
1752551001.14424,1.525498,1.81398,1
1752551001.1552444,1.440851,1.764834,1
1752551001.1582015,1.402179,1.73019,1
1752551001.1661804,1.344976,1.56417,1
1752551001.1711671,1.326445,1.643126,1
1752551001.1781492,1.42071,1.644738,1
1752551001.1811404,1.537583,1.657679,1
1752551001.1841326,1.548862,1.559336,1
1752551001.18513,1.544028,1.543223,1
1752551001.18513,1.563365,1.668153,1
1752551001.1861272,1.531943,1.613317,1
1752551001.1861272,1.453793,1.687489,1
1752551001.1861272,1.308721,1.826065,1
1752551001.1861272,1.323223,1.81398,1
1752551001.1861272,1.451376,1.697963,1
1752551001.1871245,1.453793,1.803506,1
1752551001.1871245,1.398956,1.756777,1
1752551001.1871245,1.490048,1.554502,1
1752551001.1871245,1.60526,1.598814,1
1752551001.188122,1.568199,1.556919,1
1752551001.188122,1.532749,1.48602,1
1752551001.188122,1.425544,1.569004,1
1752551001.188122,1.353033,1.556113,1
1752551001.2001173,1.358672,1.870428,1
1752551001.203117,1.373175,1.730996,1
1752551001.211095,1.413458,1.665736,1
1752551001.2210658,1.509384,1.846207,1
1752551001.2220685,1.530332,2.062179,1
1752551001.2260535,1.525498,1.566587,1
1752551001.229013,1.544028,1.514218,1
1752551001.229013,1.513413,1.672987,1
1752551001.2300448,1.43924,1.548862,1
1752551001.2300448,1.357867,1.639904,1
1752551001.2300448,1.332085,1.672987,1
1752551001.2300448,1.395734,1.800284,1
1752551001.2310393,1.438434,1.805118,1
1752551001.2310393,1.468295,1.756777,1
1752551001.2310393,1.544834,1.557725,1
1752551001.2310393,1.601231,1.595592,1
1752551001.2310393,1.489242,1.880096,1
1752551001.2320366,1.470712,1.660096,1
1752551001.2320366,1.387677,1.665736,1
1752551001.2320366,1.338531,1.656873,1
1752551001.244005,1.393317,1.62943,1
1752551001.2469923,1.458627,1.681849,1
1752551001.254943,1.585924,1.628624,1
1752551001.2649162,1.543223,1.477157,1
1752551001.266911,1.479574,1.564976,1
1752551001.2689054,1.508579,1.747109,1
1752551001.2718976,1.425544,1.966303,1
1752551001.2728953,1.422321,1.903461,1
1752551001.2728953,1.361895,1.801895,1
1752551001.2738922,1.469906,1.526303,1
1752551001.2738922,1.448958,1.698769,1
1752551001.2738922,1.54,1.618151,1
1752551001.274891,1.506967,1.773696,1
1752551001.274891,1.506162,1.581089,1
1752551001.274891,1.452987,1.55128,1
1752551001.275888,1.418293,1.414264,1
1752551001.275888,1.448153,1.386871,1
1752551001.275888,1.411847,1.51019,1
1752551001.2768843,1.360284,1.596397,1
1752551001.2768843,1.437629,1.781753,1
1752551001.2778816,1.48038,2.007393,1
1752551001.2778816,1.493271,1.989668,1
1752551001.2778816,1.445736,2.03962,1
1752551001.2888527,1.563365,1.374786,1
1752551001.290847,1.615734,1.569004,1
1752551001.2988257,1.523081,1.713271,1
1752551001.3018181,1.419098,1.606871,1
1752551001.311791,1.365118,1.552085,1
1752551001.3127885,1.309526,1.571421,1
1752551001.3157802,1.35545,1.678627,1
1752551001.3187726,1.451376,1.775308,1
1752551001.319769,1.45057,1.951801,1
1752551001.319769,1.608482,1.384454,1
1752551001.319769,1.542417,1.72455,1
1752551001.319769,1.596397,1.402179,1
1752551001.3207672,1.486825,1.721327,1
1752551001.3207672,1.48038,1.586729,1
1752551001.3207672,1.392511,1.671376,1
1752551001.3207672,1.251517,1.786587,1
1752551001.321764,1.311138,1.767251,1
1752551001.321764,1.440851,1.593175,1
1752551001.321764,1.498105,1.66493,1
1752551001.321764,1.540806,1.466683,1
1752551001.3227959,1.585924,1.655262,1
1752551001.3227959,1.543223,1.609288,1
1752551001.3347297,1.539194,1.398956,1
1752551001.3427086,1.513413,1.561753,1
1752551001.3457,1.374786,1.760806,1
1752551001.3526819,1.318389,2.058151,1
1752551001.3566704,1.362701,1.263603,1
1752551001.359663,1.394122,1.569004,1
1752551001.3626554,1.425544,2.038814,1
1752551001.363653,1.519052,1.904266,1
1752551001.363653,1.465072,1.851847,1
1752551001.363653,1.611705,1.710854,1
1752551001.363653,1.567393,1.589952,1
1752551001.363653,1.481186,1.560142,1
1752551001.3646505,1.362701,1.620568,1
1752551001.3646505,1.357867,1.492465,1
1752551001.3646505,1.370758,1.606871,1
1752551001.3646505,1.458627,1.771279,1
1752551001.3656807,1.538389,1.830899,1
1752551001.3656807,1.470712,1.521469,1
1752551001.3656807,1.527915,1.312749,1
1752551001.3656807,1.467489,1.324834,1
1752551001.366645,1.494882,1.593175,1
1752551001.366645,1.458627,1.685878,1
1752551001.3766544,1.381231,1.66493,1
1752551001.3786466,1.382843,2.035592,1
1752551001.385594,1.369952,1.945356,1
1752551001.3866253,1.45057,1.520664,1
1752551001.390581,1.498911,1.44493,1
1752551001.3975961,1.510996,1.640709,1
1752551001.4005904,1.511801,1.70602,1
1752551001.4035773,1.573838,1.863983,1
1752551001.4045773,1.589952,1.631847,1
1752551001.405574,1.454598,1.361089,1
1752551001.405574,1.331279,1.656873,1
1752551001.405574,1.40943,1.758389,1
1752551001.405574,1.425544,1.762417,1
1752551001.406538,1.396539,1.520664,1
1752551001.406538,1.387677,1.259574,1
1752551001.406538,1.360284,1.664124,1
1752551001.406538,1.421515,1.751137,1
1752551001.406538,1.57545,1.708437,1
1752551001.4075668,1.637487,1.763223,1
1752551001.4075668,1.556919,1.941327,1
1752551001.4075668,1.446542,1.78417,1
1752551001.4175446,1.293413,1.679432,1
1752551001.4195037,1.419098,1.506967,1
1752551001.4265187,1.516635,1.573033,1
1752551001.4295099,1.423127,1.318389,1
1752551001.4394813,1.300664,1.631041,1
1752551001.4414778,1.386065,1.777725,1
1752551001.4434712,1.693129,2.044454,1
1752551001.4454339,1.577867,1.566587,1
1752551001.4464624,1.47474,1.386065,1
1752551001.4474602,1.367535,1.535972,1
1752551001.4474602,1.316777,1.927631,1
1752551001.4474602,1.4336,1.981611,1
1752551001.4474602,1.478769,1.651234,1
1752551001.4474602,1.448153,1.614928,1
1752551001.448462,1.544028,1.56981,1
1752551001.448462,1.581089,1.618151,1
1752551001.448462,1.585924,1.619762,1
1752551001.448462,1.503745,1.596397,1
1752551001.4494555,1.408624,1.640709,1
1752551001.4494555,1.333696,1.615734,1
1752551001.4504204,1.346587,1.820426,1
1752551001.461425,1.419904,1.814786,1
1752551001.4684052,1.478769,1.710854,1
1752551001.4713962,1.506967,1.464266,1
1752551001.4763825,1.541611,1.640709,1
1752551001.4813693,1.54564,1.847013,1
1752551001.4853609,1.512607,1.554502,1
1752551001.487353,1.497299,1.352227,1
1752551001.4883504,1.389288,1.585924,1
1752551001.4893482,1.389288,1.692323,1
1752551001.4893482,1.388482,1.660096,1
1752551001.4893482,1.400568,1.663319,1
1752551001.4893482,1.441657,1.687489,1
1752551001.4903486,1.478769,1.709242,1
1752551001.4903486,1.535972,1.768057,1
1752551001.4903486,1.565782,1.780142,1
1752551001.4903486,1.560948,1.726162,1
1752551001.4903486,1.513413,1.664124,1
1752551001.491344,1.429572,1.489242,1
1752551001.491344,1.344976,1.692323,1
1752551001.491344,1.341753,1.722133,1
1752551001.4923084,1.393317,1.714882,1
1752551001.5032792,1.453793,1.622985,1
1752551001.5052736,1.481186,1.570616,1
1752551001.5132518,1.536777,1.682655,1
1752551001.5182712,1.55853,1.643932,1
1752551001.5242598,1.498911,1.72455,1
1752551001.5262177,1.50455,1.591563,1
1752551001.5292094,1.452987,1.793033,1
1752551001.5312037,1.367535,1.768057,1
1752551001.5312037,1.34417,1.640709,1
1752551001.5322013,1.383648,1.818009,1
1752551001.5322013,1.476351,1.611705,1
1752551001.5322013,1.496493,1.70038,1
1752551001.5322013,1.508579,1.747109,1
1752551001.5332336,1.547251,1.63507,1
1752551001.5332336,1.54564,1.582701,1
1752551001.5332336,1.511801,1.73019,1
1752551001.5332336,1.479574,1.487631,1
1752551001.5332336,1.311943,1.6891,1
1752551001.5342407,1.350616,1.774502,1
1752551001.5342407,1.394928,1.880902,1
1752551001.5342407,1.435212,1.931659,1
1752551001.5451663,1.550474,1.177345,1
1752551001.5471935,1.556919,1.448958,1
1752551001.554177,1.561753,1.589146,1
1752551001.5571342,1.561753,1.809146,1
1752551001.5661428,1.443269,1.773696,1
1752551001.5681386,1.405402,1.699574,1
1752551001.5701005,1.353033,1.680238,1
1752551001.5721264,1.392511,1.76564,1
1752551001.5740898,1.426349,1.78417,1
1752551001.5740898,1.407013,1.775308,1
1752551001.5740898,1.478769,1.71891,1
1752551001.5740898,1.525498,1.681044,1
1752551001.5740898,1.590758,1.656873,1
1752551001.5750868,1.610094,1.540806,1
1752551001.5750868,1.481186,1.681044,1
1752551001.5750868,1.427155,1.884125,1
1752551001.5750868,1.342559,1.97436,1
1752551001.576084,1.42071,1.728579,1
1752551001.576084,1.392511,1.627013,1
1752551001.576084,1.364312,1.739052,1
1752551001.576084,1.537583,1.706825,1
1752551001.5870876,1.50455,1.776114,1
1752551001.590081,1.569004,1.898627,1
1752551001.5970626,1.582701,1.410236,1
1752551001.599023,1.495688,1.440046,1
1752551001.6080306,1.444124,1.580284,1
1752551001.6100318,1.34981,1.793838,1
1752551001.6120043,1.357061,1.751137,1
1752551001.6150122,1.382843,1.721327,1
1752551001.6160092,1.421515,1.679432,1
1752551001.6160092,1.517441,1.749526,1
1752551001.6160092,1.525498,1.674598,1
1752551001.6160092,1.592369,1.592369,1
1752551001.617006,1.569004,1.477963,1
1752551001.617006,1.426349,1.862371,1
1752551001.617006,1.404596,1.876873,1
1752551001.617006,1.361895,1.661707,1
1752551001.617006,1.322417,1.595592,1
1752551001.6180062,1.405402,1.610094,1
1752551001.6180062,1.476351,1.715688,1
1752551001.6180062,1.498105,1.81962,1
1752551001.6180062,1.544834,1.756777,1
1752551001.629972,1.589146,1.750332,1
1752551001.6319664,1.581895,1.762417,1
1752551001.6389482,1.475546,1.857537,1
1752551001.6468945,1.393317,1.581895,1
1752551001.6509159,1.344976,1.511801,1
1752551001.6538768,1.308721,1.519858,1
1752551001.6549058,1.369146,1.589952,1
1752551001.6568685,1.452987,1.788199,1
1752551001.6568685,1.508579,1.851847,1
1752551001.6578996,1.535166,1.723745,1
1752551001.6578996,1.581895,1.721327,1
1752551001.6578996,1.571421,1.706825,1
1752551001.6578996,1.531138,1.596397,1
1752551001.6588626,1.391705,1.553697,1
1752551001.6588626,1.356255,1.595592,1
1752551001.6588626,1.310332,1.848624,1
1752551001.6588626,1.334502,1.851041,1
1752551001.6588626,1.457015,1.734218,1
1752551001.659892,1.521469,1.607677,1
1752551001.659892,1.584312,1.523886,1
1752551001.659892,1.573033,1.609288,1
1752551001.6708708,1.562559,1.481186,1
1752551001.6738217,1.561753,1.570616,1
1752551001.680837,1.351421,1.852653,1
1752551001.6858222,1.235354,1.753554,1
1752551001.6917994,1.311138,1.632653,1
1752551001.6937687,1.463461,1.786587,1
1752551001.6947987,1.408624,1.72455,1
1752551001.6977925,1.518247,1.493271,1
1752551001.6987877,1.554502,1.465072,1
1752551001.6987877,1.616539,1.538389,1
1752551001.6987877,1.588341,1.519052,1
1752551001.6997898,1.473935,1.67621,1
1752551001.6997898,1.341753,1.826871,1
1752551001.6997898,1.392511,1.65929,1
1752551001.6997898,1.40943,1.767251,1
1752551001.6997898,1.374786,1.773696,1
1752551001.7007842,1.421515,1.644738,1
1752551001.7007842,1.466683,1.710854,1
1752551001.7007842,1.452181,1.407013,1
1752551001.7007842,1.568199,1.521469,1
1752551001.7017794,1.588341,1.472323,1
1752551001.7117577,1.532749,1.555308,1
1752551001.7147448,1.408624,1.647961,1
1752551001.7217293,1.338531,1.826065,1
1752551001.7236886,1.36834,2.128295,1
1752551001.7326648,1.448958,1.73019,1
1752551001.7336626,1.493271,1.393317,1
1752551001.7356575,1.472323,1.573838,1
1752551001.738649,1.465878,1.640709,1
1752551001.7396464,1.585118,1.850236,1
1752551001.7396464,1.570616,1.728579,1
1752551001.7396464,1.478769,1.332085,1
1752551001.740644,1.252323,1.457015,1
1752551001.740644,1.271659,1.52872,1
1752551001.740644,1.413458,1.781753,1
1752551001.740644,1.477157,1.62379,1
1752551001.740644,1.459432,1.915546,1
1752551001.741642,1.487631,1.656873,1
1752551001.741642,1.570616,1.34981,1
1752551001.741642,1.66493,1.789004,1
1752551001.741642,1.600426,1.723745,1
1752551001.7526433,1.486825,1.576255,1
1752551001.7556355,1.332891,1.788199,1
1752551001.7626207,1.218434,2.000142,1
1752551001.766609,1.268437,1.604454,1
1752551001.7735913,1.387677,1.13545,1
1752551001.7755873,1.460238,1.52872,1
1752551001.7775831,1.522275,1.531943,1
1752551001.7805731,1.62379,1.737441,1
1752551001.7805731,1.703603,1.905878,1
1752551001.7805731,1.628624,1.618151,1
1752551001.781568,1.556919,1.733413,1
1752551001.781568,1.349004,1.747109,1
1752551001.781568,1.253129,1.868011,1
1752551001.781568,1.239432,1.680238,1
1752551001.781568,1.287773,1.336113,1
1752551001.7825646,1.482797,1.66493,1
1752551001.7825646,1.532749,1.59962,1
1752551001.7825646,1.527915,1.317583,1
1752551001.7825646,1.618151,1.554502,1
1752551001.7825646,1.594786,1.775308,1
1752551001.7835658,1.541611,1.877679,1
1752551001.7945685,1.415875,1.697963,1
1752551001.7965667,1.335308,1.772891,1
1752551001.803543,1.299858,1.731801,1
1752551001.8135128,1.393317,1.674598,1
1752551001.814482,1.502133,1.749526,1
1752551001.817508,1.54564,1.3909,1
1752551001.8195002,1.511801,1.407819,1
1752551001.8214633,1.425544,1.89621,1
1752551001.8214633,1.431989,1.750332,1
1752551001.8214633,1.581895,1.435212,1
1752551001.8214633,1.406207,1.54564,1
1752551001.8214633,1.337725,1.581089,1
1752551001.8224921,1.393317,1.560948,1
1752551001.8224921,1.464266,1.81398,1
1752551001.8224921,1.454598,1.915546,1
1752551001.8224921,1.490048,1.758389,1
1752551001.8224921,1.527915,1.706825,1
1752551001.8234577,1.566587,1.695546,1
1752551001.8234577,1.564976,1.531138,1
1752551001.8234577,1.573838,1.48038,1
1752551001.8344617,1.437629,1.536777,1
1752551001.8404453,1.274882,1.645544,1
1752551001.8434362,1.258769,1.718105,1
1752551001.845432,1.354644,1.756777,1
1752551001.8543751,1.503745,1.81962,1
1752551001.8554058,1.554502,1.652039,1
1752551001.8583977,1.548862,1.698769,1
1752551001.8593931,1.594786,1.531138,1
1752551001.8623884,1.588341,1.496493,1
1752551001.8623884,1.503745,1.697963,1
1752551001.8623884,1.422321,1.710854,1
1752551001.8623884,1.322417,1.593175,1
1752551001.8623884,1.266825,1.818814,1
1752551001.8633854,1.281327,1.510996,1
1752551001.8633854,1.485214,1.600426,1
1752551001.8633854,1.573838,1.867205,1
1752551001.8633854,1.622179,1.725356,1
1752551001.8633854,1.570616,1.602037,1
1752551001.864381,1.591563,1.555308,1
1752551001.864381,1.495688,1.635875,1
1752551001.876348,1.431989,1.706825,1
1752551001.8833294,1.367535,1.709242,1
1752551001.8863213,1.375592,1.647155,1
1752551001.895334,1.427155,1.616539,1
1752551001.8963,1.438434,1.633458,1
1752551001.8993235,1.463461,1.615734,1
1752551001.90132,1.535166,1.59962,1
1752551001.9023154,1.555308,1.67621,1
1752551001.9033127,1.570616,1.683461,1
1752551001.9033127,1.485214,1.631847,1
1752551001.9033127,1.371563,1.73019,1
1752551001.9033127,1.321611,1.727773,1
1752551001.9033127,1.36834,1.72455,1
1752551001.904314,1.453793,1.618956,1
1752551001.904314,1.471517,1.641515,1
1752551001.904314,1.516635,1.730996,1
1752551001.904314,1.518247,1.728579,1
1752551001.904314,1.56981,1.357867,1
1752551001.9053073,1.543223,1.477963,1
1752551001.9053073,1.490854,1.598009,1
1752551001.906307,1.396539,1.882513,1
1752551001.9152822,1.366729,1.52872,1
1752551001.9172773,1.340948,1.606066,1
1752551001.924257,1.396539,1.685072,1
1752551001.9272492,1.464266,1.577061,1
1752551001.9362514,1.52872,1.779336,1
1752551001.938222,1.523081,1.632653,1
1752551001.9411802,1.574644,1.570616,1
1752551001.9441714,1.547251,1.737441,1
1752551001.9441714,1.509384,1.82526,1
1752551001.9441714,1.383648,1.557725,1
1752551001.9441714,1.308721,1.602843,1
1752551001.9441714,1.336113,1.737441,1
1752551001.945169,1.40943,1.73583,1
1752551001.945169,1.48602,1.614928,1
1752551001.945169,1.519858,1.668153,1
1752551001.945169,1.557725,1.715688,1
1752551001.946166,1.544834,1.762417,1
1752551001.946166,1.543223,1.66493,1
1752551001.946166,1.48038,1.62379,1
1752551001.946166,1.400568,1.436823,1
1752551001.9571712,1.317583,1.674598,1
1752551001.9591634,1.390094,1.690712,1
1752551001.9671423,1.415875,1.697157,1
1752551001.977116,1.43924,1.710048,1
1752551001.978116,1.495688,1.708437,1
1752551001.9811068,1.529526,1.755972,1
1752551001.9830995,1.611705,1.689906,1
1752551001.9850945,1.571421,1.673793,1
1752551001.9850945,1.478769,1.673793,1
1752551001.9850945,1.361089,1.678627,1
1752551001.9850945,1.277299,1.677015,1
1752551001.9850945,1.37398,1.609288,1
1752551001.986094,1.443269,1.70038,1
1752551001.986094,1.472323,1.779336,1
1752551001.986094,1.508579,1.773696,1
1752551001.986094,1.512607,1.644738,1
1752551001.986094,1.59398,1.783365,1
1752551001.9870884,1.619762,2.006587,1
1752551001.9870884,1.494076,1.496493,1
1752551001.9870884,1.364312,1.556919,1
1752551001.9880552,1.300664,1.963886,1
1752551001.9980278,1.353838,1.932465,1
1752551002.0010195,1.419098,1.493271,1
1752551002.0080016,1.490048,1.509384,1
1752551002.0099974,1.494076,1.667347,1
1752551002.019969,1.535166,1.677821,1
1752551002.020966,1.604454,1.628624,1
1752551002.0239587,1.557725,1.639904,1
1752551002.026951,1.481991,1.701991,1
1752551002.026951,1.397345,1.665736,1
1752551002.026951,1.316777,1.722939,1
1752551002.026951,1.343365,1.710854,1
1752551002.027947,1.421515,1.714882,1
1752551002.027947,1.491659,1.6891,1
1752551002.027947,1.497299,1.672181,1
1752551002.027947,1.527109,1.627013,1
1752551002.0289438,1.597203,1.624596,1
1752551002.0289438,1.573033,1.650428,1
1752551002.0289438,1.511801,1.701991,1
1752551002.0289438,1.357867,1.75436,1
1752551002.0289438,1.283744,1.751943,1
1752551002.0299428,1.341753,1.775308,1
1752551002.0419102,1.401373,1.781753,1
1752551002.0488915,1.478769,1.613317,1
1752551002.0508864,1.522275,1.63507,1
1752551002.0578678,1.559336,1.638293,1
1752551002.0618572,1.588341,1.646349,1
1752551002.0648487,1.55128,1.722939,1
1752551002.0668435,1.441657,1.779336,1
1752551002.068838,1.394122,1.66493,1
1752551002.068838,1.32564,2.11621,1
1752551002.068838,1.357061,1.815592,1
1752551002.068838,1.42071,1.32,1
1752551002.068838,1.499716,1.550474,1
1752551002.0698354,1.506162,1.614122,1
1752551002.0698354,1.532749,1.628624,1
1752551002.0698354,1.576255,1.608482,1
1752551002.0698354,1.535972,1.639098,1
1752551002.0698354,1.460238,1.714882,1
1752551002.0708334,1.365118,1.731801,1
1752551002.0708334,1.303886,1.543223,1
1752551002.0708334,1.394122,1.604454,1
1752551002.0718303,1.437629,1.840568,1
1752551002.0828326,1.465072,1.884125,1
1752551002.0837986,1.494076,1.826871,1
1752551002.091809,1.524692,1.687489,1
1752551002.102751,1.589146,1.506967,1
1752551002.1037471,1.523081,1.635875,1
1752551002.1067402,1.469906,1.716494,1
1752551002.1097705,1.37962,1.705214,1
1752551002.1097705,1.365924,1.621373,1
1752551002.1097705,1.361895,1.67621,1
1752551002.1097705,1.393317,1.736635,1
1752551002.1107633,1.473935,1.667347,1
1752551002.1107633,1.523081,1.413458,1
1752551002.1107633,1.537583,1.386065,1
1752551002.1107633,1.598814,1.696352,1
1752551002.1107633,1.521469,1.76,1
1752551002.1117268,1.467489,1.794644,1
1752551002.1117268,1.340948,1.669764,1
1752551002.1117268,1.318389,1.726967,1
1752551002.1117268,1.382843,1.876873,1
1752551002.1117268,1.410236,1.934882,1
1752551002.123695,1.476351,1.557725,1
1752551002.125721,1.51583,1.407013,1
1752551002.1327066,1.594786,1.55128,1
1752551002.137691,1.593175,1.63507,1
1752551002.1436749,1.496493,1.730996,1
1752551002.1456697,1.509384,1.593175,1
1752551002.1476634,1.423127,1.736635,1
1752551002.149657,1.311943,1.820426,1
1752551002.1506226,1.257963,1.566587,1
1752551002.1516523,1.335308,1.51583,1
1752551002.1516523,1.467489,1.718105,1
1752551002.1516523,1.51583,1.606066,1
1752551002.1516523,1.589146,1.770474,1
1752551002.1516523,1.560142,1.690712,1
1752551002.152617,1.593175,1.331279,1
1752551002.152617,1.484408,1.628624,1
1752551002.152617,1.332085,2.153271,1
1752551002.152617,1.329668,1.716494,1
1752551002.152617,1.556919,1.447347,1
1752551002.1536715,1.416681,1.799478,1
1752551002.1546113,1.451376,1.807535,1
1752551002.1646214,1.471517,1.41507,1
1752551002.1676087,1.515024,1.502939,1
1752551002.174593,1.535972,1.315971,1
1752551002.1795743,1.541611,1.282939,1
1752551002.1856427,1.55853,1.592369,1
1752551002.1866398,1.402179,1.858343,1
1752551002.1887527,1.321611,1.905878,1
1752551002.1908033,1.29019,1.864788,1
1752551002.192796,1.358672,1.757583,1
1752551002.192796,1.360284,1.660096,1
1752551002.192796,1.451376,1.839762,1
1752551002.192796,1.539194,1.685878,1
1752551002.1941693,1.652039,1.949384,1
1752551002.1941693,1.596397,1.84379,1
1752551002.1941693,1.62943,1.84379,1
1752551002.1941693,1.410236,1.312749,1
1752551002.1951613,1.299052,1.228908,1
1752551002.1951613,1.311138,1.272465,1
1752551002.1951613,1.37962,1.270854,1
1752551002.1951613,1.465072,1.592369,1
1752551002.1961586,1.411847,1.965498,1
1752551002.2071304,1.579478,1.587535,1
1752551002.2091236,1.622179,1.610899,1
1752551002.2161052,1.519858,1.821231,1
1752551002.2210917,1.402985,2.020284,1
1752551002.227076,1.376397,1.876873,1
1752551002.2300684,1.311138,1.669764,1
1752551002.2340891,1.389288,1.287773,1
1752551002.2340891,1.495688,1.324028,1
1752551002.2340891,1.596397,1.411847,1
1752551002.2340891,1.479574,1.639098,1
1752551002.2350867,1.459432,1.871234,1
1752551002.2350867,1.552085,1.672987,1
1752551002.2350867,1.583507,1.647155,1
1752551002.2350867,1.412653,1.751943,1
1752551002.2360523,1.220046,1.770474,1
1752551002.2360523,1.356255,1.858343,1
1752551002.2360523,1.421515,1.624596,1
1752551002.2360523,1.427961,1.581089,1
1752551002.2360523,1.434406,1.560142,1
1752551002.2370815,1.584312,1.625402,1
1752551002.2480528,1.624596,1.634264,1
1752551002.2500465,1.656873,1.755166,1
1752551002.2569976,1.516635,1.751943,1
1752551002.2589905,1.446542,1.419904,1
1752551002.2680023,1.377203,1.561753,1
1752551002.270991,1.233742,1.780948,1
1752551002.2729526,1.366729,1.847819,1
1752551002.2749798,1.457821,1.805923,1
1752551002.2749798,1.492465,1.416681,1
1752551002.275981,1.490048,1.492465,1
1752551002.275981,1.596397,1.887347,1
1752551002.275981,1.624596,2.000142,1
1752551002.275981,1.585118,1.78981,1
1752551002.275981,1.373175,1.285356,1
1752551002.2769744,1.121753,1.527109,1
1752551002.2769744,1.182179,1.567393,1
1752551002.2769744,1.423932,1.781753,1
1752551002.2769744,1.553697,1.780142,1
1752551002.2779753,1.612511,1.51019,1
1752551002.2779753,1.602037,1.632653,1
1752551002.2779753,1.502939,1.487631,1
1752551002.2879128,1.55853,1.47474,1
1752551002.289909,1.55853,1.802701,1
1752551002.296889,1.434406,1.834928,1
1752551002.298884,1.364312,1.748721,1
1752551002.3088892,1.392511,1.610094,1
1752551002.310852,1.376397,1.553697,1
1752551002.3138437,1.394928,1.67621,1
1752551002.3158376,1.452181,1.75436,1
1752551002.316836,1.485214,1.822037,1
1752551002.316836,1.548057,1.606871,1
1752551002.316836,1.584312,1.610094,1
1752551002.316836,1.524692,1.459432,1
1752551002.3178332,1.460238,1.519052,1
1752551002.3178332,1.395734,1.556919,1
1752551002.3178332,1.348199,1.791421,1
1752551002.3178332,1.382037,1.685878,1
1752551002.3178332,1.440851,1.747109,1
1752551002.3188305,1.477157,1.780142,1
1752551002.3188305,1.499716,1.681044,1
1752551002.3188305,1.560142,1.581895,1
1752551002.3198283,1.567393,1.557725,1
1752551002.330799,1.535166,1.62943,1
1752551002.3328254,1.442463,1.734218,1
1752551002.339775,1.354644,1.432795,1
1752551002.3467555,1.323223,1.536777,1
1752551002.3517427,1.401373,1.701991,1
1752551002.3537605,1.44493,1.911518,1
1752551002.3557677,1.473935,1.67621,1
1752551002.3577607,1.541611,1.492465,1
1752551002.3577607,1.584312,1.697157,1
1752551002.3577607,1.536777,1.577867,1
1752551002.3577607,1.531138,1.70038,1
1752551002.358756,1.442463,1.740664,1
1752551002.358756,1.363507,1.60526,1
1752551002.358756,1.352227,1.690712,1
1752551002.358756,1.387677,1.769668,1
1752551002.3597534,1.415875,1.838151,1
1752551002.3597534,1.479574,1.681044,1
1752551002.3597534,1.525498,1.738247,1
1752551002.3597534,1.537583,1.661707,1
1752551002.3597534,1.576255,1.552085,1
1752551002.370731,1.505356,1.633458,1
1752551002.3786707,1.458627,1.701186,1
1752551002.381663,1.337725,1.663319,1
1752551002.391636,1.323223,1.645544,1
1752551002.391636,1.361895,1.704408,1
1752551002.394628,1.415875,1.614122,1
1752551002.3966227,1.539194,1.742275,1
1752551002.3996146,1.51583,1.745498,1
1752551002.3996146,1.556919,1.55853,1
1752551002.3996146,1.589146,1.548057,1
1752551002.400612,1.50455,1.683461,1
1752551002.400612,1.435212,1.850236,1
1752551002.400612,1.40943,1.806729,1
1752551002.400612,1.313555,1.768862,1
1752551002.400612,1.357867,1.671376,1
1752551002.401609,1.452987,1.740664,1
1752551002.401609,1.48602,1.681044,1
1752551002.401609,1.482797,1.702797,1
1752551002.401609,1.577061,1.626207,1
1752551002.4026065,1.577867,1.583507,1
1752551002.4026065,1.537583,1.735024,1
1752551002.413578,1.434406,1.625402,1
1752551002.4165692,1.387677,1.577061,1
1752551002.4255447,1.335308,1.627013,1
1752551002.434552,1.36834,1.755166,1
1752551002.4375129,1.411847,1.921991,1
1752551002.438511,1.503745,1.683461,1
1752551002.4415033,1.511801,1.873651,1
1752551002.4425006,1.602037,1.514218,1
1752551002.4425006,1.632653,1.585924,1
1752551002.4425006,1.50455,1.781753,1
1752551002.4425006,1.431989,1.729384,1
1752551002.4434972,1.345782,1.726162,1
1752551002.4434972,1.312749,1.644738,1
1752551002.4434972,1.369952,1.631041,1
1752551002.4434972,1.454598,1.733413,1
1752551002.4434972,1.487631,1.721327,1
1752551002.4444954,1.535166,1.762417,1
1752551002.4444954,1.573033,1.688295,1
1752551002.4444954,1.602037,1.70038,1
1752551002.4444954,1.55128,1.780948,1
1752551002.4454923,1.401373,1.880902,1
1752551002.4554653,1.353838,1.582701,1
1752551002.4564621,1.302275,1.60526,1
1752551002.4584568,1.32,1.686683,1
1752551002.4664357,1.42071,1.695546,1
1752551002.4764087,1.497299,1.682655,1
1752551002.4784355,1.548057,1.666541,1
1752551002.4804318,1.579478,1.606871,1
1752551002.483426,1.587535,1.516635,1
1752551002.4843874,1.544834,1.56417,1
1752551002.4843874,1.440046,1.655262,1
1752551002.4843874,1.339336,1.672987,1
1752551002.4843874,1.299052,1.790616,1
1752551002.485419,1.358672,1.906683,1
1752551002.485419,1.431989,1.761611,1
1752551002.485419,1.523081,1.775308,1
1752551002.485419,1.523081,1.905072,1
1752551002.4864147,1.561753,1.417487,1
1752551002.4864147,1.569004,1.54564,1
1752551002.4864147,1.537583,1.48038,1
1752551002.4864147,1.443269,1.65929,1
1752551002.4864147,1.349004,1.771279,1
1752551002.4973533,1.315166,1.742275,1
1752551002.4993482,1.367535,1.612511,1
1752551002.50633,1.447347,1.65929,1
1752551002.5093217,1.497299,1.767251,1
1752551002.5192952,1.519858,1.741469,1
1752551002.5212889,1.526303,1.872039,1
1752551002.5242815,1.548057,1.814786,1
1752551002.5272741,1.563365,1.249906,1
1752551002.5272741,1.451376,1.447347,1
1752551002.5272741,1.354644,1.624596,1
1752551002.5272741,1.343365,1.709242,1
1752551002.5272741,1.381231,1.673793,1
1752551002.5282705,1.401373,1.766445,1
1752551002.5282705,1.500522,1.830899,1
1752551002.5282705,1.498105,1.681044,1
1752551002.5282705,1.506162,1.618956,1
1752551002.5282705,1.60526,1.692323,1
1752551002.5292683,1.522275,1.760806,1
1752551002.5292683,1.457015,1.742275,1
1752551002.5292683,1.343365,1.870428,1
1752551002.5292683,1.361895,1.91474,1
1752551002.5302653,1.477963,1.425544,1
1752551002.5412352,1.436017,1.585924,1
1752551002.543231,1.376397,1.647155,1
1752551002.5502117,1.479574,1.447347,1
1752551002.5532033,1.621373,1.520664,1
1752551002.5632129,1.548057,1.595592,1
1752551002.565206,1.519052,1.770474,1
1752551002.5681977,1.414264,1.614122,1
1752551002.5701857,1.421515,1.762417,1
1752551002.5701857,1.311943,1.816397,1
1752551002.571186,1.36834,1.695546,1
1752551002.571186,1.407819,1.816397,1
1752551002.571186,1.505356,1.788199,1
1752551002.571186,1.523886,1.668153,1
1752551002.571186,1.573033,1.581089,1
1752551002.572186,1.548057,1.586729,1
1752551002.572186,1.470712,1.828483,1
1752551002.572186,1.438434,1.72455,1
1752551002.572186,1.471517,1.250712,1
1752551002.5731516,1.440046,1.231325,1
1752551002.5731516,1.324028,1.684266,1
1752551002.5731516,1.334502,1.831705,1
1752551002.5741827,1.468295,1.830899,1
1752551002.5851502,1.508579,1.78981,1
1752551002.5871484,1.550474,1.624596,1
1752551002.5950918,1.603648,1.536777,1
1752551002.5970864,1.507773,1.43924,1
1752551002.607062,1.444124,1.78981,1
1752551002.609055,1.357061,2.011421,1
1752551002.611049,1.36834,1.486825,1
1752551002.614041,1.361895,1.367535,1
1752551002.614041,1.473129,1.577061,1
1752551002.6150384,1.530332,1.680238,1
1752551002.6150384,1.539194,1.706825,1
1752551002.6150384,1.415875,1.687489,1
1752551002.6150384,1.626207,1.833317,1
1752551002.6160357,1.572227,1.863983,1
1752551002.6160357,1.44493,1.709242,1
1752551002.6160357,1.331279,1.820426,1
1752551002.6160357,1.328862,1.737441,1
1752551002.6160357,1.340948,1.51019,1
1752551002.6170332,1.448958,1.432795,1
1752551002.6170332,1.483603,1.797061,1
1752551002.6170332,1.508579,1.946161,1
1752551002.618031,1.523081,1.885736,1
1752551002.6290007,1.581895,1.775308,1
1752551002.6309958,1.563365,1.38526,1
1752551002.6390007,1.582701,1.277299,1
1752551002.6409693,1.328862,1.569004,1
1752551002.6499445,1.187819,1.529526,1
1752551002.6519399,1.366729,1.273271,1
1752551002.6549315,1.347393,1.499716,1
1752551002.6579247,1.382843,1.75436,1
1752551002.6579247,1.498911,1.715688,1
1752551002.6579247,1.663319,1.663319,1
1752551002.6579247,1.73019,2.022701,1
1752551002.658921,1.606066,1.884125,1
1752551002.658921,1.411847,1.490048,1
1752551002.658921,1.327251,1.757583,1
1752551002.658921,1.249906,1.857537,1
1752551002.6599178,1.406207,1.507773,1
1752551002.6599178,1.451376,1.498911,1
1752551002.6599178,1.473935,1.602037,1
1752551002.6599178,1.45057,1.718105,1
1752551002.6609147,1.577061,1.673793,1
1752551002.6609147,1.679432,1.660096,1
1752551002.67192,1.535166,1.445736,1
1752551002.673881,1.326445,1.477157,1
1752551002.6818922,1.26602,1.79545,1
1752551002.6838546,1.363507,1.79545,1
1752551002.6938279,1.395734,2.084788,1
1752551002.695856,1.457015,1.286967,1
1752551002.6978164,1.515024,1.578672,1
1752551002.6998441,1.47474,1.587535,1
1752551002.7008438,1.560948,1.552085,1
1752551002.701838,1.645544,1.734218,1
1752551002.701838,1.640709,1.703603,1
1752551002.701838,1.421515,1.70038,1
1752551002.701838,1.337725,1.673793,1
1752551002.7028356,1.28455,1.768057,1
1752551002.7028356,1.431183,1.747915,1
1752551002.7028356,1.622179,1.518247,1
1752551002.7028356,1.305498,1.544028,1
1752551002.7028356,1.228908,1.681044,1
1752551002.7038002,1.405402,1.642321,1
1752551002.7038002,1.67057,1.685878,1
1752551002.7038002,1.54564,1.715688,1
1752551002.7038002,1.477963,1.644738,1
1752551002.7158005,1.472323,1.476351,1
1752551002.7177954,1.339336,1.50455,1
1752551002.7257433,1.396539,1.587535,1
1752551002.727737,1.469906,1.654456,1
1752551002.73771,1.525498,1.830094,1
1752551002.7397044,1.555308,1.786587,1
1752551002.741699,1.637487,1.72455,1
1752551002.7456887,1.601231,1.624596,1
1752551002.7456887,1.444124,1.776114,1
1752551002.7456887,1.286967,1.663319,1
1752551002.7456887,1.310332,1.413458,1
1752551002.7456887,1.398956,1.710854,1
1752551002.7466867,1.347393,1.468295,1
1752551002.7466867,1.446542,1.513413,1
1752551002.7466867,1.486825,1.716494,1
1752551002.7466867,1.489242,1.799478,1
1752551002.7476835,1.643932,1.661707,1
1752551002.7476835,1.628624,1.570616,1
1752551002.7476835,1.526303,1.594786,1
1752551002.7476835,1.412653,1.553697,1
1752551002.7476835,1.339336,1.654456,1
1752551002.7486813,1.299858,1.729384,1
1752551002.7586532,1.371563,1.833317,1
1752551002.761646,1.41507,1.59398,1
1752551002.7686272,1.512607,1.639098,1
1752551002.770622,1.573033,1.652039,1
1752551002.7805953,1.606871,1.613317,1
1752551002.7825904,1.598814,1.627013,1
1752551002.785582,1.506162,1.651234,1
1752551002.7886083,1.389288,1.640709,1
1752551002.7886083,1.319194,1.735024,1
1752551002.7886083,1.311138,1.657679,1
1752551002.7886083,1.382037,1.637487,1
1752551002.7895827,1.45057,1.606871,1
1752551002.7895827,1.483603,1.589146,1
1752551002.7895827,1.537583,1.666541,1
1752551002.7895827,1.597203,1.652845,1
1752551002.7906039,1.601231,1.780142,1
1752551002.7906039,1.508579,1.689906,1
1752551002.7906039,1.405402,1.652845,1
1752551002.7906039,1.315971,1.557725,1
1752551002.7906039,1.341753,1.616539,1
1752551002.791566,1.381231,1.660096,1
1752551002.791566,1.43924,1.602037,1
1752551002.8025725,1.513413,1.646349,1
1752551002.804568,1.561753,1.770474,1
1752551002.811513,1.564976,1.617345,1
1752551002.8145049,1.577867,1.402179,1
1752551002.8244805,1.55128,1.675404,1
1752551002.8265085,1.397345,1.560142,1
1752551002.829465,1.309526,1.618151,1
1752551002.8314593,1.341753,1.740664,1
1752551002.832457,1.371563,1.743081,1
1752551002.832457,1.428766,1.768057,1
1752551002.832457,1.506967,1.802701,1
1752551002.832457,1.563365,1.780142,1
1752551002.833454,1.587535,1.692323,1
1752551002.833454,1.589952,1.65929,1
1752551002.833454,1.490854,1.695546,1
1752551002.833454,1.382843,1.815592,1
1752551002.833454,1.282133,1.970332,1
1752551002.8344524,1.341753,1.527109,1
1752551002.8344524,1.422321,1.553697,1
1752551002.8344524,1.457015,1.698769,1
1752551002.8344524,1.50455,1.656068,1
1752551002.8464198,1.549668,1.709242,1
1752551002.8494112,1.590758,1.764834,1
1752551002.8563936,1.574644,1.768862,1
1752551002.858387,1.51019,1.701991,1
1752551002.8683608,1.376397,1.675404,1
1752551002.8713517,1.324028,1.616539,1
1752551002.873347,1.336919,1.577061,1
1752551002.875342,1.382843,1.654456,1
1752551002.8763397,1.44493,1.668153,1
1752551002.8763397,1.506967,1.685878,1
1752551002.8763397,1.55853,1.711659,1
1752551002.8763397,1.626207,1.779336,1
1752551002.8773367,1.585924,1.768057,1
1752551002.8773367,1.497299,1.770474,1
1752551002.8773367,1.399762,1.769668,1
1752551002.8773367,1.303886,1.780948,1
1752551002.8773367,1.336113,1.751943,1
1752551002.878334,1.397345,1.716494,1
1752551002.878334,1.448153,1.686683,1
1752551002.878334,1.513413,1.6891,1
1752551002.878334,1.55128,1.672181,1
1752551002.8793316,1.602843,1.621373,1
1752551002.8893375,1.569004,1.643126,1
1752551002.8913014,1.498105,1.685072,1
1752551002.8933265,1.413458,1.702797,1
1752551002.9003096,1.343365,1.663319,1
1752551002.9112453,1.356255,1.679432,1
1752551002.9132411,1.352227,1.703603,1
1752551002.9152715,1.426349,1.783365,1
1752551002.91723,1.512607,1.696352,1
1752551002.9192588,1.555308,1.615734,1
1752551002.9192588,1.611705,1.693935,1
1752551002.9192588,1.597203,1.708437,1
1752551002.9202538,1.497299,1.65929,1
1752551002.9202538,1.386065,1.702797,1
1752551002.9202538,1.323223,1.714882,1
1752551002.9202538,1.318389,1.743886,1
1752551002.9202538,1.358672,1.730996,1
1752551002.9212513,1.431183,1.909906,1
1752551002.9212513,1.544834,1.517441,1
1752551002.9212513,1.572227,1.710854,1
1752551002.9212513,1.572227,1.622985,1
1752551002.9222522,1.574644,1.548057,1
1752551002.9222522,1.485214,1.59962,1
1752551002.9331875,1.369952,1.59398,1
1752551002.9361796,1.313555,1.76564,1
1752551002.9451554,1.335308,1.768057,1
1752551002.9551551,1.374786,1.710854,1
1752551002.958121,1.492465,1.635875,1
1752551002.9611127,1.508579,1.664124,1
1752551002.9631183,1.542417,1.886541,1
1752551002.964105,1.573838,1.747915,1
1752551002.964105,1.594786,1.459432,1
1752551002.964105,1.48602,1.584312,1
1752551002.964105,1.369146,1.681044,1
1752551002.9651017,1.338531,1.639098,1
1752551002.9651017,1.348199,1.569004,1
1752551002.9651017,1.413458,1.701991,1
1752551002.9651017,1.4336,1.682655,1
1752551002.9651017,1.482797,1.696352,1
1752551002.966099,1.55128,1.60526,1
1752551002.966099,1.59962,1.826065,1
1752551002.966099,1.573033,1.908295,1
1752551002.966099,1.374786,1.685878,1
1752551002.9670963,1.410236,1.274882,1
1752551002.9670963,1.397345,1.484408,1
1752551002.978067,1.34417,1.465878,1
1752551002.981059,1.407819,1.838151,1
1752551002.9880407,1.445736,1.854264,1
1752551002.999011,1.515024,1.606066,1
1752551003.001006,1.525498,1.632653,1
1752551003.0030005,1.55128,1.603648,1
1752551003.0069895,1.602037,1.65929,1
1752551003.0069895,1.523081,1.732607,1
1752551003.0079868,1.382843,1.661707,1
1752551003.0079868,1.357867,1.757583,1
1752551003.0079868,1.294218,1.602037,1
1752551003.0079868,1.251517,1.478769,1
1752551003.0079868,1.483603,1.741469,1
1752551003.0089839,1.56981,1.972749,1
1752551003.0089839,1.557725,1.695546,1
1752551003.0089839,1.596397,1.678627,1
1752551003.0089839,1.572227,1.521469,1
1752551003.0099812,1.493271,1.25474,1
1752551003.0099812,1.401373,1.503745,1
1752551003.0099812,1.350616,1.548862,1
1752551003.0099812,1.354644,1.70602,1
1752551003.0109797,1.428766,1.802701,1
1752551003.0209517,1.405402,1.710854,1
1752551003.0239441,1.473129,1.847819,1
1752551003.0309258,1.554502,1.835734,1
1752551003.0329204,1.622179,1.539194,1
1752551003.0438907,1.55128,1.612511,1
1752551003.0458858,1.44493,1.571421,1
1752551003.0479088,1.410236,1.639904,1
1752551003.0509045,1.34981,1.776114,1
1752551003.0519063,1.472323,1.872845,1
1752551003.0519063,1.448958,1.685072,1
1752551003.0519063,1.429572,1.288579,1
1752551003.0519063,1.407013,1.495688,1
1752551003.052899,1.419904,1.655262,1
1752551003.052899,1.590758,1.597203,1
1752551003.052899,1.665736,1.674598,1
1752551003.052899,1.519858,1.691518,1
1752551003.052899,1.386065,1.756777,1
1752551003.0538652,1.328862,1.723745,1
1752551003.0538652,1.392511,1.673793,1
1752551003.0538652,1.438434,1.818009,1
1752551003.0538652,1.471517,1.737441,1
1752551003.0548637,1.37398,1.650428,1
1752551003.0658324,1.544834,1.693129,1
1752551003.0688245,1.716494,1.870428,1
1752551003.0768037,1.510996,1.744692,1
1752551003.0817902,1.431989,1.51583,1
1752551003.0887716,1.365118,1.466683,1
1752551003.091763,1.37398,1.535972,1
1752551003.0957522,1.353033,1.533555,1
1752551003.0957522,1.391705,1.679432,1
1752551003.0957522,1.359478,1.693935,1
1752551003.0957522,1.455404,1.583507,1
1752551003.0967498,1.587535,1.692323,1
1752551003.0967498,1.653651,1.457821,1
1752551003.0967498,1.542417,1.598009,1
1752551003.0967498,1.45057,1.701991,1
1752551003.097748,1.399762,1.751137,1
1752551003.097748,1.322417,1.786587,1
1752551003.097748,1.336113,1.672181,1
1752551003.097748,1.402985,1.679432,1
1752551003.097748,1.540806,1.816397,1
1752551003.0987453,1.552085,1.740664,1
1752551003.0987453,1.518247,1.596397,1
1752551003.0987453,1.590758,1.399762,1
1752551003.110712,1.556919,1.547251,1
1752551003.1176934,1.497299,1.67057,1
1752551003.1206856,1.347393,1.573838,1
1752551003.1316562,1.292607,1.763223,1
1752551003.133651,1.380426,1.773696,1
1752551003.1356456,1.473935,1.582701,1
1752551003.1386373,1.443269,1.672181,1
1752551003.1386373,1.473129,1.647155,1
1752551003.1386373,1.526303,1.467489,1
1752551003.139636,1.677015,1.639098,1
1752551003.139636,1.54564,1.747915,1
1752551003.139636,1.393317,1.719716,1
1752551003.139636,1.345782,1.780948,1
1752551003.139636,1.282939,1.654456,1
1752551003.1406329,1.405402,1.741469,1
1752551003.1406329,1.427961,1.696352,1
1752551003.1406329,1.421515,1.652039,1
1752551003.1406329,1.396539,1.675404,1
1752551003.1416306,1.457015,1.581089,1
1752551003.1416306,1.57545,1.660902,1
1752551003.1416306,1.557725,1.844596,1
1752551003.1426275,1.525498,1.73583,1
1752551003.152632,1.516635,1.472323,1
1752551003.155626,1.349004,1.435212,1
1752551003.1625738,1.290996,1.60526,1
1752551003.1655655,1.407819,1.522275,1
1752551003.1755388,1.51583,1.610899,1
1752551003.1775694,1.56417,1.882513,1
1752551003.1795626,1.522275,1.745498,1
1752551003.182554,1.660902,1.557725,1
1752551003.182554,1.555308,1.447347,1
1752551003.1835496,1.467489,1.603648,1
1752551003.1835496,1.281327,1.654456,1
1752551003.1835496,1.298247,1.770474,1
1752551003.1835496,1.365118,1.650428,1
1752551003.1835496,1.423127,1.742275,1
1752551003.1845467,1.481991,1.695546,1
1752551003.1845467,1.592369,1.693935,1
1752551003.1845467,1.56417,1.683461,1
1752551003.1845467,1.570616,1.576255,1
1752551003.1855478,1.511801,1.641515,1
1752551003.1855478,1.463461,1.626207,1
1752551003.1855478,1.380426,1.687489,1
1752551003.1855478,1.335308,1.75436,1
1752551003.1965148,1.347393,1.709242,1
1752551003.1985114,1.438434,1.681044,1
1752551003.2064576,1.421515,1.755972,1
1752551003.2094843,1.506967,1.606871,1
1752551003.213438,1.577061,1.529526,1
1752551003.2204516,1.618956,1.563365,1
1752551003.2244089,1.573033,1.661707,1
1752551003.2274005,1.473129,1.371563,1
1752551003.2274005,1.357867,1.522275,1
1752551003.2274005,1.297441,1.811563,1
1752551003.2274005,1.348199,1.790616,1
1752551003.2283976,1.402985,1.688295,1
1752551003.2283976,1.468295,1.696352,1
1752551003.2283976,1.52872,1.6891,1
1752551003.2283976,1.56417,1.661707,1
1752551003.2283976,1.594786,1.637487,1
1752551003.229395,1.553697,1.631847,1
1752551003.229395,1.481991,1.614928,1
1752551003.229395,1.36834,1.621373,1
1752551003.229395,1.308721,1.646349,1
1752551003.2303927,1.336113,1.607677,1
1752551003.2303927,1.419098,1.693129,1
1752551003.2413626,1.460238,1.708437,1
1752551003.2433677,1.51583,1.608482,1
1752551003.2503388,1.54564,1.628624,1
1752551003.2533307,1.610094,1.652039,1
1752551003.2633045,1.579478,1.716494,1
1752551003.2652986,1.448958,1.666541,1
1752551003.2672932,1.357867,1.619762,1
1752551003.2692883,1.32,1.780948,1
1752551003.270286,1.369146,1.70602,1
1752551003.271315,1.405402,1.716494,1
1752551003.271315,1.467489,1.764028,1
1752551003.271315,1.518247,1.687489,1
1752551003.271315,1.548862,1.680238,1
1752551003.271315,1.593175,1.631041,1
1752551003.2723126,1.577867,1.734218,1
1752551003.2723126,1.502939,1.711659,1
1752551003.2723126,1.402985,1.569004,1
1752551003.2723126,1.28455,1.573033,1
1752551003.2732785,1.334502,1.579478,1
1752551003.2732785,1.412653,1.57545,1
1752551003.2732785,1.483603,1.656873,1
1752551003.2743075,1.524692,1.789004,1
1752551003.2852771,1.544834,1.840568,1
1752551003.2872717,1.586729,1.807535,1
1752551003.2932563,1.547251,1.705214,1
1752551003.2972436,1.489242,1.697157,1
1752551003.3070464,1.382037,1.780142,1
1752551003.309042,1.268437,1.726967,1
1752551003.311068,1.317583,1.680238,1
1752551003.3140283,1.447347,1.725356,1
1752551003.3150568,1.48038,1.72455,1
1752551003.3150568,1.521469,1.715688,1
1752551003.3150568,1.567393,1.779336,1
1752551003.3150568,1.598009,1.758389,1
1752551003.3160563,1.562559,1.651234,1
1752551003.3160563,1.473935,1.624596,1
1752551003.3160563,1.374786,1.763223,1
1752551003.3160563,1.308721,1.743886,1
1752551003.3160563,1.356255,1.748721,1
1752551003.317052,1.442463,1.693129,1
1752551003.317052,1.481991,1.628624,1
1752551003.317052,1.489242,1.655262,1
1752551003.317052,1.53436,1.731801,1
1752551003.318049,1.589952,1.768057,1
1752551003.3289878,1.576255,1.859954,1
1752551003.3319795,1.503745,1.561753,1
1752551003.338961,1.357061,1.686683,1
1752551003.3469665,1.339336,1.671376,1
1752551003.3509295,1.324834,1.606066,1
1752551003.3529239,1.395734,1.603648,1
1752551003.3549182,1.505356,1.706825,1
1752551003.3579106,1.535166,1.711659,1
1752551003.3579106,1.535972,1.708437,1
1752551003.3579106,1.590758,1.647155,1
1752551003.358908,1.56417,1.809952,1
1752551003.358908,1.470712,1.72455,1
1752551003.358908,1.34981,1.701991,1
1752551003.358908,1.299052,1.688295,1
1752551003.358908,1.34417,1.715688,1
1752551003.359905,1.412653,1.704408,1
1752551003.359905,1.471517,1.685072,1
1752551003.359905,1.523886,1.67621,1
1752551003.359905,1.554502,1.613317,1
1752551003.3609025,1.589146,1.621373,1
1752551003.3609025,1.537583,1.630236,1
1752551003.370876,1.461849,1.621373,1
1752551003.3738685,1.387677,1.671376,1
1752551003.3798857,1.319194,1.722133,1
1752551003.3828762,1.359478,1.751137,1
1752551003.3928485,1.408624,1.897821,1
1752551003.3948438,1.442463,1.826065,1
1752551003.3968384,1.530332,1.477963,1
1752551003.3988013,1.55128,1.588341,1
1752551003.4008331,1.574644,1.840568,1
1752551003.4008331,1.548057,1.847819,1
1752551003.4008331,1.494076,1.621373,1
1752551003.4008331,1.377203,1.602843,1
1752551003.401826,1.381231,1.669764,1
1752551003.401826,1.360284,1.717299,1
1752551003.401826,1.369952,1.606871,1
1752551003.401826,1.452181,1.644738,1
1752551003.401826,1.495688,1.631847,1
1752551003.4028225,1.544028,1.704408,1
1752551003.4028225,1.616539,1.511801,1
1752551003.4028225,1.544028,1.611705,1
1752551003.4028225,1.441657,1.826871,1
1752551003.4038222,1.361089,1.726162,1
1752551003.4147906,1.343365,1.522275,1
1752551003.4217715,1.426349,1.73583,1
1752551003.4247668,1.431989,1.868817,1
1752551003.4357357,1.370758,1.711659,1
1752551003.4367313,1.452987,1.493271,1
1752551003.4396927,1.569004,1.603648,1
1752551003.4417188,1.62943,1.507773,1
1752551003.4427154,1.519052,1.499716,1
1752551003.4427154,1.455404,1.564976,1
1752551003.4437165,1.336113,1.618956,1
1752551003.4437165,1.343365,1.769668,1
1752551003.4437165,1.419098,1.851041,1
1752551003.4437165,1.441657,1.722133,1
1752551003.4447105,1.50455,1.608482,1
1752551003.4447105,1.530332,1.594786,1
1752551003.4447105,1.499716,1.52872,1
1752551003.4447105,1.570616,1.515024,1
1752551003.4447105,1.563365,1.684266,1
1752551003.4457076,1.460238,1.853458,1
1752551003.4457076,1.376397,1.777725,1
1752551003.4457076,1.29583,1.622985,1
1752551003.456647,1.343365,1.448153,1
1752551003.4596386,1.490854,2.114598,1
1752551003.4666514,1.476351,2.158105,1
1752551003.477631,1.573033,1.696352,1
1752551003.478625,1.560142,1.328057,1
1752551003.4806144,1.564976,1.272465,1
1752551003.4826088,1.459432,1.448958,1
1752551003.4856021,1.369952,1.650428,1
1752551003.4856021,1.35545,1.726162,1
1752551003.4856021,1.330474,1.596397,1
1752551003.4856021,1.336919,1.573033,1
1752551003.4866035,1.485214,1.644738,1
1752551003.4866035,1.497299,1.82526,1
1752551003.4866035,1.516635,1.627013,1
1752551003.4866035,1.530332,1.47474,1
1752551003.4866035,1.664124,1.543223,1
1752551003.4875982,1.635875,1.790616,1
1752551003.4875982,1.435212,1.832511,1
1752551003.4875982,1.286162,1.60526,1
1752551003.4875982,1.109668,1.557725,1
1752551003.4885964,1.337725,1.714076,1
1752551003.4985669,1.393317,1.807535,1
1752551003.5015588,1.516635,1.986445,1
1752551003.50912,1.585924,1.703603,1
1752551003.515105,1.56981,1.338531,1
1752551003.5210867,1.656873,1.502939,1
1752551003.523084,1.60526,1.67057,1
1752551003.525077,1.454598,1.714882,1
1752551003.5280693,1.316777,1.698769,1
1752551003.5290644,1.244266,1.728579,1
1752551003.5290644,1.290996,1.502939,1
1752551003.5290644,1.372369,1.444124,1
1752551003.5290644,1.498105,1.553697,1
1752551003.5290644,1.572227,1.695546,1
1752551003.5300615,1.628624,1.71891,1
1752551003.5300615,1.602843,1.837345,1
1752551003.5300615,1.386065,1.691518,1
1752551003.5300615,1.241044,1.674598,1
1752551003.5300615,1.293413,1.560142,1
1752551003.5310624,1.407819,1.524692,1
1752551003.5320573,1.484408,1.730996,1
1752551003.5430186,1.561753,2.035592,1
1752551003.5449903,1.709242,1.806729,1
1752551003.5519714,1.67621,1.747109,1
1752551003.5629768,1.57545,1.598814,1
1752551003.564972,1.472323,1.59398,1
1752551003.5679286,1.280522,1.602843,1
1752551003.5709207,1.116114,1.43924,1
1752551003.5709207,1.174122,1.445736,1
1752551003.5709207,1.337725,1.48038,1
1752551003.5709207,1.604454,1.548057,1
1752551003.5709207,1.525498,1.67057,1
1752551003.5719178,1.543223,1.722133,1
1752551003.5719178,1.738247,1.677015,1
1752551003.5719178,1.638293,1.692323,1
1752551003.5719178,1.568199,1.667347,1
1752551003.5729165,1.446542,1.581089,1
1752551003.5729165,1.142701,1.762417,1
1752551003.5729165,1.323223,1.811563,1
1752551003.5729165,1.41507,1.533555,1
1752551003.5729165,1.443269,1.560948,1
1752551003.5739133,1.407819,1.658485,1
1752551003.5838866,1.511801,1.815592,1
1752551003.5858808,1.631041,1.793838,1
1752551003.5928965,1.635875,1.726162,1
1752551003.5958543,1.503745,1.680238,1
1752551003.605887,1.357867,1.672181,1
1752551003.605887,1.29583,1.619762,1
1752551003.6088579,1.41507,1.654456,1
1752551003.6098871,1.455404,1.683461,1
1752551003.612879,1.458627,1.699574,1
1752551003.6138444,1.485214,1.587535,1
1752551003.6138444,1.570616,1.597203,1
1752551003.6138444,1.646349,1.614122,1
1752551003.6138444,1.597203,1.660096,1
1752551003.6138444,1.394928,1.734218,1
1752551003.6148741,1.240238,1.597203,1
1752551003.6148741,1.270854,1.556113,1
1752551003.6148741,1.401373,1.693935,1
1752551003.6148741,1.451376,1.624596,1
1752551003.6148741,1.524692,1.538389,1
1752551003.6158738,1.557725,1.523081,1
1752551003.6158738,1.586729,1.560948,1
1752551003.6268437,1.606066,1.589952,1
1752551003.6288366,1.541611,1.643932,1
1752551003.6357865,1.437629,1.653651,1
1752551003.6377802,1.328862,1.616539,1
1752551003.6477926,1.303886,1.673793,1
1752551003.6497808,1.358672,1.703603,1
1752551003.6517758,1.418293,1.677015,1
1752551003.6537385,1.493271,1.651234,1
1752551003.6557715,1.549668,1.618151,1
1752551003.6557715,1.567393,1.657679,1
1752551003.656766,1.592369,1.652039,1
1752551003.656766,1.548057,1.691518,1
1752551003.656766,1.423127,1.610899,1
1752551003.656766,1.351421,1.653651,1
1752551003.656766,1.305498,1.708437,1
1752551003.657759,1.386871,1.573033,1
1752551003.657759,1.419098,1.656873,1
1752551003.657759,1.477963,1.727773,1
1752551003.657759,1.507773,1.707631,1
1752551003.658758,1.567393,1.614928,1
1752551003.658758,1.616539,1.618956,1
1752551003.6697285,1.549668,1.640709,1
1752551003.6716907,1.4336,1.652039,1
1752551003.678703,1.34417,1.775308,1
1752551003.6836903,1.264408,1.592369,1
1752551003.6906729,1.37398,1.460238,1
1752551003.6926656,1.438434,1.851847,1
1752551003.6946292,1.498911,1.886541,1
1752551003.6976204,1.526303,1.569004,1
1752551003.6976204,1.577867,1.809952,1
1752551003.6976204,1.584312,1.601231,1
1752551003.6976204,1.531138,1.602843,1
1752551003.6976204,1.454598,1.697963,1
1752551003.698618,1.370758,1.562559,1
1752551003.698618,1.298247,1.769668,1
1752551003.698618,1.353033,1.729384,1
1752551003.698618,1.432795,1.714882,1
1752551003.6996152,1.508579,1.773696,1
1752551003.6996152,1.535166,1.771279,1
1752551003.6996152,1.567393,1.744692,1
1752551003.6996152,1.574644,1.635875,1
1752551003.6996152,1.557725,1.644738,1
1752551003.7096167,1.410236,1.714882,1
1752551003.7125804,1.324028,1.710048,1
1752551003.7135782,1.332085,1.730996,1
1752551003.7205858,1.360284,1.728579,1
1752551003.7315304,1.399762,1.811563,1
1752551003.7315304,1.498105,1.643932,1
1752551003.7335577,1.560948,1.580284,1
1752551003.7355187,1.577061,1.689906,1
1752551003.7385497,1.596397,1.699574,1
1752551003.7385497,1.56417,1.634264,1
1752551003.7395082,1.428766,1.67057,1
1752551003.7395082,1.31436,1.758389,1
1752551003.7395082,1.28455,1.770474,1
1752551003.7395082,1.35545,1.753554,1
1752551003.7395082,1.4336,1.731801,1
1752551003.7405438,1.506162,1.71891,1
1752551003.7405438,1.564976,1.691518,1
1752551003.7405438,1.585118,1.69474,1
1752551003.7405438,1.618151,1.627013,1
1752551003.7405438,1.529526,1.536777,1
1752551003.742533,1.42071,1.586729,1
1752551003.752506,1.349004,1.711659,1
1752551003.757494,1.299858,1.78981,1
1752551003.7614825,1.356255,1.832511,1
1752551003.764474,1.432795,1.824454,1
1752551003.7744472,1.498911,1.877679,1
1752551003.77641,1.536777,1.598814,1
1752551003.7794335,1.614122,1.523886,1
1752551003.7804306,1.603648,1.642321,1
1752551003.7804306,1.532749,1.622179,1
1752551003.7804306,1.427155,1.643126,1
1752551003.7814298,1.326445,1.677015,1
1752551003.7814298,1.298247,1.725356,1
1752551003.7814298,1.369952,1.673793,1
1752551003.7814298,1.427961,1.69474,1
1752551003.7814298,1.507773,1.690712,1
1752551003.7824335,1.535972,1.652039,1
1752551003.7824335,1.571421,1.639098,1
1752551003.7824335,1.590758,1.706825,1
1752551003.7824335,1.517441,1.677821,1
1752551003.7824335,1.407819,1.682655,1
1752551003.7863834,1.351421,1.624596,1
1752551003.7933962,1.309526,1.729384,1
1752551003.7963881,1.358672,1.627819,1
1752551003.8033707,1.434406,1.697963,1
1752551003.8083563,1.496493,1.713271,1
1752551003.8143408,1.540806,1.743886,1
1752551003.8183317,1.550474,1.734218,1
1752551003.821323,1.589952,1.662513,1
1752551003.821323,1.506967,1.67621,1
1752551003.82232,1.427961,1.710048,1
1752551003.82232,1.36834,1.792227,1
1752551003.82232,1.353838,1.65929,1
1752551003.82232,1.389288,1.766445,1
1752551003.82232,1.419098,1.838151,1
1752551003.823285,1.448958,1.568199,1
1752551003.823285,1.50455,1.663319,1
1752551003.823285,1.580284,1.612511,1
1752551003.823285,1.586729,1.391705,1
1752551003.823285,1.489242,1.618956,1
1752551003.8243148,1.419904,1.703603,1
1752551003.8243148,1.374786,1.698769,1
1752551003.8352528,1.34981,1.613317,1
1752551003.8422673,1.376397,1.748721,1
1752551003.8442605,1.3909,1.602843,1
1752551003.8552327,1.446542,1.564976,1
1752551003.8552327,1.55853,1.76,1
1752551003.857238,1.598009,2.021089,1
1752551003.85922,1.540806,1.685072,1
1752551003.8612163,1.560948,1.618956,1
1752551003.8632123,1.425544,1.526303,1
1752551003.8632123,1.345782,1.544834,1
1752551003.8632123,1.292607,1.56981,1
1752551003.8632123,1.388482,1.664124,1
1752551003.8632123,1.411847,1.67621,1
1752551003.8642075,1.502133,1.787393,1
1752551003.8642075,1.523886,1.72455,1
1752551003.8642075,1.556113,1.613317,1
1752551003.8642075,1.591563,1.618151,1
1752551003.8642075,1.515024,1.768057,1
1752551003.8652046,1.393317,1.610094,1
1752551003.8652046,1.361895,1.464266,1
1752551003.8661706,1.266825,1.447347,1
1752551003.8771405,1.427155,1.739858,1
1752551003.8841646,1.460238,1.768862,1
1752551003.8861165,1.472323,1.698769,1
1752551003.8931403,1.506162,1.872845,1
1752551003.8981178,1.69474,1.526303,1
1752551003.9001105,1.53436,1.624596,1
1752551003.902106,1.526303,1.616539,1
1752551003.9040997,1.363507,1.72455,1
1752551003.9040997,1.342559,1.73019,1
1752551003.9040997,1.328862,1.646349,1
1752551003.9040997,1.305498,1.735024,1
1752551003.9050972,1.443269,1.583507,1
1752551003.9050972,1.541611,1.592369,1
1752551003.9050972,1.570616,1.616539,1
1752551003.9050972,1.55128,1.453793,1
1752551003.9050972,1.601231,1.771279,1
1752551003.9060967,1.592369,1.576255,1
1752551003.9060967,1.438434,1.781753,1
1752551003.9060967,1.239432,1.635875,1
1752551003.9060967,1.360284,1.747915,1
1752551003.9170668,1.332085,1.876068,1
1752551003.9200573,1.351421,1.593175,1
1752551003.9260416,1.491659,1.416681,1
1752551003.9290025,1.664124,1.669764,1
1752551003.9380112,1.567393,1.837345,1
1752551003.941003,1.607677,1.479574,1
1752551003.9439938,1.538389,1.745498,1
1752551003.9449918,1.289384,1.63507,1
1752551003.9459898,1.422321,1.411847,1
1752551003.9459898,1.236965,1.354644,1
1752551003.9459898,1.158814,1.640709,1
1752551003.9459898,1.263603,1.892987,1
1752551003.9459898,1.642321,1.78417,1
1752551003.9469852,1.710854,1.610094,1
1752551003.9469852,1.595592,1.699574,1
1752551003.9469852,1.565782,1.498911,1
1752551003.9469852,1.500522,1.393317,1
1752551003.9479825,1.457015,1.830899,1
1752551003.9479825,1.348199,1.992085,1
1752551003.9479825,1.34981,1.717299,1
1752551003.9479825,1.386065,1.587535,1
1752551003.9589565,1.395734,1.722939,1
1752551003.9599514,1.407819,1.577867,1
1752551003.9669344,1.601231,1.714882,1
1752551003.9699254,1.588341,1.766445,1
1752551003.9798975,1.560948,1.682655,1
1752551003.981892,1.620568,1.684266,1
1752551003.983854,1.429572,1.29019,1
1752551003.9868784,1.29019,1.415875,1
1752551003.9868784,1.209572,1.660902,1
1752551003.9868784,1.395734,1.770474,1
1752551003.9868784,1.498911,1.892987,1
1752551003.9878821,1.560948,1.782559,1
1752551003.9878821,1.481186,1.645544,1
1752551003.9878821,1.543223,1.569004,1
1752551003.9878821,1.566587,1.548862,1
1752551003.9888768,1.3909,1.481991,1
1752551003.9888768,1.427961,1.499716,1
1752551003.9888768,1.354644,1.652845,1
1752551003.9888768,1.395734,1.800284,1
1752551003.9888768,1.477963,1.699574,1
1752551003.9898393,1.467489,1.595592,1
1752551003.9998438,1.560142,1.678627,1
1752551004.0018404,1.54564,1.717299,1
1752551004.0088215,1.527915,1.763223,1
1752551004.0108151,1.557725,1.601231,1
1752551004.0208092,1.502939,1.612511,1
1752551004.022752,1.394928,1.583507,1
1752551004.0257761,1.289384,1.699574,1
1752551004.027769,1.239432,1.593175,1
1752551004.028768,1.421515,1.621373,1
1752551004.028768,1.51583,1.685878,1
1752551004.028768,1.561753,1.716494,1
1752551004.0297709,1.556113,1.761611,1
1752551004.0297709,1.589952,1.695546,1
1752551004.0297709,1.524692,1.699574,1
1752551004.0297709,1.508579,1.672181,1
1752551004.0297709,1.411847,1.584312,1
1752551004.0307636,1.396539,1.677015,1
1752551004.0307636,1.261991,1.442463,1
1752551004.0307636,1.397345,1.572227,1
1752551004.0307636,1.362701,1.672987,1
1752551004.0317585,1.495688,1.704408,1
1752551004.0417333,1.606066,1.640709,1
1752551004.0437276,1.587535,1.616539,1
1752551004.0507078,1.560948,1.639904,1
1752551004.052704,1.516635,1.652845,1
1752551004.062678,1.419098,1.662513,1
1752551004.0646718,1.351421,1.66493,1
1752551004.06667,1.353033,1.660096,1
1752551004.067631,1.405402,1.647961,1
1752551004.0696573,1.453793,1.634264,1
1752551004.0706232,1.48602,1.613317,1
1752551004.0706232,1.519052,1.607677,1
1752551004.0706232,1.576255,1.62943,1
1752551004.0706232,1.561753,1.622985,1
1752551004.0716522,1.51019,1.666541,1
1752551004.0716522,1.423127,1.750332,1
1752551004.0716522,1.331279,1.719716,1
1752551004.0716522,1.376397,1.756777,1
1752551004.0726495,1.411847,1.654456,1
1752551004.0726495,1.431989,1.631041,1
1752551004.0726495,1.482797,1.718105,1
1752551004.0736482,1.524692,1.72455,1
1752551004.0836196,1.576255,1.562559,1
1752551004.0866137,1.55853,1.777725,1
1752551004.093562,1.520664,1.721327,1
1752551004.0985801,1.427961,1.569004,1
1752551004.106559,1.313555,1.680238,1
1752551004.1085572,1.321611,1.73019,1
1752551004.1105497,1.384454,1.756777,1
1752551004.1125453,1.465072,1.705214,1
1752551004.1125453,1.51583,1.622179,1
1752551004.1125453,1.532749,1.624596,1
1752551004.1135085,1.55853,1.619762,1
1752551004.1135085,1.573033,1.502133,1
1752551004.1135085,1.487631,1.583507,1
1752551004.1135085,1.395734,1.818814,1
1752551004.1135085,1.381231,1.853458,1
1752551004.1145372,1.37398,1.72455,1
1752551004.1145372,1.378814,1.581895,1
1752551004.1145372,1.432795,1.585924,1
1752551004.1145372,1.502939,1.701991,1
1752551004.1155403,1.548057,1.778531,1
1752551004.1155403,1.602037,1.722133,1
1752551004.1255076,1.577867,1.687489,1
1752551004.1275058,1.499716,1.70038,1
1752551004.134486,1.397345,1.728579,1
1752551004.136447,1.344976,1.721327,1
1752551004.1424644,1.319194,1.716494,1
1752551004.147449,1.376397,1.730996,1
1752551004.1504438,1.457821,1.722133,1
1752551004.1514385,1.490854,1.699574,1
1752551004.153435,1.522275,1.588341,1
1752551004.1544306,1.573033,1.573838,1
1752551004.1544306,1.586729,1.550474,1
1752551004.1544306,1.535166,1.748721,1
1752551004.1544306,1.400568,1.650428,1
1752551004.1554272,1.34981,1.798672,1
1752551004.1554272,1.335308,1.798672,1
1752551004.1554272,1.393317,1.726162,1
1752551004.1554272,1.452181,1.665736,1
1752551004.1554272,1.506162,1.84943,1
1752551004.1563945,1.502939,1.743081,1
1752551004.1563945,1.615734,1.610094,1
1752551004.1673641,1.620568,1.557725,1
1752551004.1693585,1.50455,1.705214,1
1752551004.1773374,1.436017,1.684266,1
1752551004.182324,1.305498,1.636681,1
1752551004.188336,1.216823,1.78417,1
1752551004.190303,1.40379,1.556919,1
1752551004.1932945,1.45057,1.698769,1
1752551004.1952896,1.535166,1.73583,1
1752551004.1952896,1.552085,1.673793,1
1752551004.1952896,1.595592,1.658485,1
1752551004.1962867,1.581895,1.65929,1
1752551004.1962867,1.519052,1.63507,1
1752551004.1962867,1.408624,1.635875,1
1752551004.1962867,1.279716,1.712465,1
1752551004.1962867,1.32,1.697157,1
1752551004.1972835,1.40379,1.680238,1
1752551004.1972835,1.457821,1.706825,1
1752551004.1972835,1.486825,1.73583,1
1752551004.1972835,1.597203,1.687489,1
1752551004.1972835,1.616539,1.613317,1
1752551004.1982813,1.438434,1.665736,1
1752551004.208254,1.47474,1.639904,1
1752551004.2102494,1.408624,1.587535,1
1752551004.2172642,1.381231,1.556919,1
1752551004.2192256,1.308721,1.75436,1
1752551004.2282014,1.359478,1.71891,1
1752551004.2301962,1.435212,1.669764,1
1752551004.2331877,1.502133,1.755166,1
1752551004.2351825,1.592369,1.640709,1
1752551004.2351825,1.657679,1.89057,1
1752551004.23618,1.512607,1.885736,1
1752551004.23618,1.491659,1.612511,1
1752551004.23618,1.401373,1.476351,1
1752551004.23618,1.345782,1.583507,1
1752551004.23618,1.334502,1.658485,1
1752551004.2371771,1.392511,1.743081,1
1752551004.2371771,1.461044,1.519858,1
1752551004.2371771,1.500522,1.697157,1
1752551004.2371771,1.556919,1.66493,1
1752551004.2371771,1.585118,1.655262,1
1752551004.2381747,1.579478,1.611705,1
1752551004.2491453,1.502133,1.857537,1
1752551004.25114,1.338531,1.988057,1
1752551004.2581527,1.300664,1.697157,1
1752551004.2681358,1.270048,1.549668,1
1752551004.2700894,1.423127,1.568199,1
1752551004.2721152,1.473129,1.710048,1
1752551004.275108,1.405402,1.685878,1
1752551004.275108,1.531943,1.523081,1
1752551004.2761064,1.602037,1.535972,1
1752551004.2761064,1.71891,1.371563,1
1752551004.2761064,1.424738,1.841373,1
1752551004.2761064,1.415875,1.868011,1
1752551004.2761064,1.413458,1.713271,1
1752551004.277102,1.303886,1.657679,1
1752551004.277102,1.336919,1.846207,1
1752551004.277102,1.376397,1.729384,1
1752551004.277102,1.494076,1.428766,1
1752551004.277102,1.710048,1.34981,1
1752551004.278102,1.511801,1.26602,1
1752551004.278102,1.470712,1.691518,1
1752551004.2880735,1.465878,1.778531,1
1752551004.2910645,1.445736,1.627013,1
1752551004.2970507,1.341753,1.762417,1
1752551004.3000374,1.304692,2.035592,1
1752551004.3090165,1.476351,1.640709,1
1752551004.3120089,1.442463,1.479574,1
1752551004.3150065,1.55128,1.638293,1
1752551004.3159997,1.516635,1.611705,1
1752551004.3159997,1.556113,1.427961,1
1752551004.3159997,1.543223,1.585924,1
1752551004.3169959,1.423127,1.553697,1
1752551004.3169959,1.37962,1.643932,1
1752551004.3169959,1.335308,1.807535,1
1752551004.3169959,1.353838,1.910712,1
1752551004.3169959,1.446542,1.892987,1
1752551004.3179953,1.44493,1.92038,1
1752551004.3179953,1.589952,1.929242,1
1752551004.3179953,1.663319,1.526303,1
1752551004.3179953,1.418293,1.596397,1
1752551004.3179953,1.549668,1.640709,1
1752551004.329961,1.555308,1.608482,1
1752551004.3319242,1.381231,1.573033,1
1752551004.3389318,1.2491,1.62379,1
1752551004.3419313,1.279716,1.69474,1
1752551004.34991,1.492465,1.935688,1
1752551004.3519022,1.581089,1.286967,1
1752551004.3548627,1.37398,1.706825,1
1752551004.3578563,1.502133,1.768862,1
1752551004.358851,1.679432,1.710048,1
1752551004.358851,1.581895,1.801895,1
1752551004.3598485,1.440046,1.720522,1
1752551004.3598485,1.449764,1.365118,1
1752551004.3598485,1.438434,1.574644,1
1752551004.3598485,1.211989,1.753554,1
1752551004.3608458,1.332085,1.62943,1
1752551004.3608458,1.453793,1.473129,1
1752551004.3608458,1.577061,1.668153,1
1752551004.3608458,1.481186,1.713271,1
1752551004.3608458,1.603648,1.634264,1
1752551004.3618429,1.693129,1.882513,1
1752551004.3618429,1.604454,1.928437,1
1752551004.3618429,1.309526,1.641515,1
1752551004.3728142,1.282939,1.490854,1
1752551004.3748085,1.265214,1.362701,1
1752551004.3817902,1.343365,1.598814,1
1752551004.3847826,1.453793,1.750332,1
1752551004.394756,1.581089,1.882513,1
1752551004.3967507,1.651234,1.805118,1
1752551004.3997421,1.490048,1.560142,1
1752551004.4017372,1.427961,1.662513,1
1752551004.4017372,1.415875,1.531138,1
1752551004.4017372,1.382037,1.445736,1
1752551004.4027343,1.386871,1.556919,1
1752551004.4027343,1.408624,1.697157,1
1752551004.4027343,1.402985,1.78981,1
1752551004.4027343,1.561753,1.84379,1
1752551004.4037359,1.569004,1.761611,1
1752551004.4037359,1.536777,1.673793,1
1752551004.4037359,1.448958,1.607677,1
1752551004.4037359,1.498911,1.608482,1
1752551004.4037359,1.508579,1.499716,1
1752551004.4047296,1.371563,1.506967,1
1752551004.4047296,1.315166,1.561753,1
1752551004.415728,1.278105,1.668153,1
1752551004.4177213,1.451376,1.805923,1
1752551004.4267035,1.513413,1.805118,1
1752551004.4277008,1.56981,1.679432,1
1752551004.4366755,1.500522,1.722133,1
1752551004.4396362,1.547251,1.444124,1
1752551004.4436247,1.614122,1.579478,1
1752551004.4466186,1.543223,1.776114,1
1752551004.4466186,1.37962,1.959858,1
1752551004.4476159,1.328862,1.905072,1
1752551004.4476159,1.357061,1.638293,1
1752551004.4476159,1.394122,1.343365,1
1752551004.4476159,1.40943,1.564976,1
1752551004.4476159,1.495688,1.567393,1
1752551004.4486125,1.531943,1.701991,1
1752551004.4486125,1.523886,1.827677,1
1752551004.4486125,1.548862,1.412653,1
1752551004.4486125,1.548862,1.523886,1
1752551004.4496102,1.360284,1.642321,1
1752551004.4496102,1.441657,1.627013,1
1752551004.4496102,1.279716,1.675404,1
1752551004.4496102,1.34417,1.683461,1
1752551004.4506066,1.498105,1.536777,1
1752551004.4615767,1.553697,1.506967,1
1752551004.463572,1.63507,1.654456,1
1752551004.4705532,1.667347,1.84379,1
1752551004.4735444,1.544834,1.822037,1
1752551004.4825206,1.412653,1.79545,1
1752551004.4835174,1.382843,1.797061,1
1752551004.4855134,1.34417,1.665736,1
1752551004.4885051,1.329668,1.616539,1
1752551004.490499,1.291801,1.573838,1
1752551004.490499,1.408624,1.566587,1
1752551004.490499,1.580284,1.625402,1
1752551004.490499,1.586729,1.663319,1
1752551004.4914982,1.643932,1.736635,1
1752551004.4914982,1.646349,1.79545,1
1752551004.4914982,1.53436,1.774502,1
1752551004.4914982,1.365118,1.532749,1
1752551004.4925258,1.234548,1.560142,1
1752551004.4925258,1.191847,1.970332,1
1752551004.4925258,1.336113,1.701991,1
1752551004.4925258,1.59398,1.309526,1
1752551004.4925258,1.465072,1.583507,1
1752551004.493526,1.538389,1.696352,1
1752551004.5044959,1.576255,1.809146,1
1752551004.5114439,1.687489,1.469906,1
1752551004.514436,1.583507,1.561753,1
1752551004.5254061,1.396539,1.678627,1
1752551004.5274012,1.274076,1.654456,1
1752551004.5303934,1.236965,1.680238,1
1752551004.533385,1.386871,1.715688,1
1752551004.533385,1.494076,1.686683,1
1752551004.533385,1.567393,1.650428,1
1752551004.533385,1.513413,1.718105,1
1752551004.5343833,1.643932,1.751137,1
1752551004.5343833,1.644738,1.581895,1
1752551004.5343833,1.448153,1.639904,1
1752551004.5343833,1.359478,1.602843,1
1752551004.5353796,1.245878,1.650428,1
1752551004.5353796,1.339336,1.644738,1
1752551004.5353796,1.399762,1.643932,1
1752551004.5353796,1.566587,1.611705,1
1752551004.5353796,1.506162,1.611705,1
1752551004.5363765,1.491659,1.70038,1
1752551004.5363765,1.671376,1.674598,1
1752551004.5473475,1.512607,1.63507,1
1752551004.549342,1.530332,1.56981,1
1752551004.5573223,1.378009,1.574644,1
1752551004.5633047,1.236159,1.811563,1
1752551004.5703146,1.345782,1.778531,1
1752551004.571306,1.421515,1.696352,1
1752551004.5732782,1.45057,1.996919,1
1752551004.5772684,1.519858,1.399762,1
1752551004.5782971,1.590758,1.664124,1
1752551004.5782971,1.742275,1.722133,1
1752551004.5782971,1.50455,1.577867,1
1752551004.5782971,1.443269,1.606871,1
1752551004.5782971,1.34417,1.787393,1
1752551004.5792954,1.338531,1.490854,1
1752551004.5792954,1.253129,1.851041,1
1752551004.5792954,1.357867,1.868011,1
1752551004.5792954,1.523081,1.55853,1
1752551004.5802913,1.594786,1.743081,1
1752551004.5802913,1.576255,1.611705,1
1752551004.5802913,1.632653,1.647155,1
1752551004.5802913,1.59398,1.587535,1
1752551004.5802913,1.48602,1.658485,1
1752551004.5912309,1.326445,1.945356,1
1752551004.5932567,1.382843,1.561753,1
1752551004.5952199,1.273271,1.768057,1
1752551004.6012037,1.274882,1.822037,1
1752551004.6061895,1.453793,1.671376,1
1752551004.6147728,1.574644,1.494076,1
1752551004.6167665,1.569004,1.685878,1
1752551004.6197581,1.624596,1.777725,1
1752551004.6217554,1.634264,1.544834,1
1752551004.6217554,1.532749,1.655262,1
1752551004.6217554,1.270048,1.789004,1
1752551004.6217554,1.272465,1.537583,1
1752551004.6227198,1.386871,1.592369,1
1752551004.6227198,1.329668,1.690712,1
1752551004.6227198,1.45621,1.738247,1
1752551004.6227198,1.57545,1.661707,1
1752551004.6237156,1.581895,1.633458,1
1752551004.6237156,1.577867,1.682655,1
1752551004.6237156,1.619762,1.592369,1
1752551004.6237156,1.486825,1.677821,1
1752551004.6237156,1.278105,1.748721,1
1752551004.624747,1.267631,1.756777,1
1752551004.6357164,1.357061,1.710048,1
1752551004.6376789,1.40379,1.71891,1
1752551004.6446602,1.494076,1.691518,1
1752551004.647652,1.516635,1.664124,1
1752551004.6576252,1.540806,1.631847,1
1752551004.6596208,1.592369,1.592369,1
1752551004.662611,1.568199,1.593175,1
1752551004.6656036,1.471517,1.646349,1
1752551004.6656036,1.339336,1.73019,1
1752551004.6656036,1.419098,1.691518,1
1752551004.6666014,1.296635,1.713271,1
1752551004.6666014,1.336113,1.761611,1
1752551004.6666014,1.465072,1.698769,1
1752551004.6666014,1.527915,1.66493,1
1752551004.6666014,1.588341,1.586729,1
1752551004.6675985,1.502939,1.530332,1
1752551004.6675985,1.555308,1.423127,1
1752551004.6675985,1.626207,1.705214,1
1752551004.6675985,1.262797,1.848624,1
1752551004.6675985,1.308721,1.853458,1
1752551004.6685958,1.382037,1.818814,1
1752551004.6685958,1.431183,1.887347,1
1752551004.6795666,1.506162,1.703603,1
1752551004.681561,1.569004,1.407013,1
1752551004.689541,1.548057,1.521469,1
1752551004.6935294,1.544028,1.641515,1
1752551004.7025433,1.467489,1.789004,1
1752551004.7045348,1.495688,1.42071,1
1752551004.7064939,1.411847,1.521469,1
1752551004.7094877,1.226491,1.460238,1
1752551004.7104838,1.429572,1.764028,1
1752551004.7104838,1.419098,1.961469,1
1752551004.7104838,1.569004,1.768862,1
1752551004.7114816,1.493271,1.763223,1
1752551004.7114816,1.541611,1.851847,1
1752551004.7114816,1.610094,1.536777,1
1752551004.7114816,1.561753,1.487631,1
1752551004.7124805,1.37398,1.645544,1
1752551004.7124805,1.308721,1.658485,1
1752551004.7124805,1.350616,1.553697,1
1752551004.712991,1.324028,1.764028,1
1752551004.712991,1.548862,1.587535,1
1752551004.712991,1.45057,1.732607,1
1752551004.712991,1.48602,1.927631,1
1752551004.7139845,1.579478,1.650428,1
1752551004.7249563,1.598814,1.498911,1
1752551004.7269497,1.530332,1.701186,1
1752551004.7349608,1.529526,1.471517,1
1752551004.736923,1.453793,1.461849,1
1752551004.7469275,1.285356,1.742275,1
1752551004.748925,1.29019,1.834122,1
1752551004.7509181,1.388482,1.933271,1
1752551004.753878,1.47474,1.681044,1
1752551004.753878,1.486825,1.483603,1
1752551004.753878,1.561753,1.203127,1
1752551004.7549064,1.550474,1.602037,1
1752551004.7549064,1.448958,1.888959,1
1752551004.7549064,1.490854,1.785782,1
1752551004.7549064,1.416681,1.954218,1
1752551004.7549064,1.343365,1.899432,1
1752551004.7559037,1.406207,1.792227,1
1752551004.7559037,1.507773,1.517441,1
1752551004.7559037,1.4336,1.769668,1
1752551004.7559037,1.531943,1.710854,1
1752551004.756904,1.494882,1.37962,1
1752551004.756904,1.45057,1.597203,1
1752551004.7688377,1.492465,1.934882,1
1752551004.773825,1.717299,0.9662073,1
1752551004.7788107,1.363507,1.387677,1
1752551004.7857916,1.220851,1.761611,1
1752551004.7907786,1.422321,1.822037,1
1752551004.7927725,1.423932,1.845402,1
1752551004.7957654,1.452181,1.71891,1
1752551004.79776,1.564976,1.654456,1
1752551004.79776,1.548862,2.146825,1
1752551004.798757,1.565782,2.294314,1
1752551004.798757,1.641515,0.6366354,1
1752551004.798757,1.245072,1.205544,1
1752551004.798757,1.155592,1.591563,1
1752551004.7997544,1.351421,1.82526,1
1752551004.7997544,1.619762,1.653651,1
1752551004.7997544,1.469906,1.585924,1
1752551004.7997544,1.535972,1.633458,1
1752551004.7997544,1.490048,1.72455,1
1752551004.8007522,1.390094,2.183081,1
1752551004.8007522,1.587535,1.865594,1
1752551004.8007522,1.622179,1.154786,1
1752551004.8007522,1.305498,1.741469,1
1752551004.811747,1.308721,1.387677,1
1752551004.8137164,1.442463,1.270048,1
1752551004.8206983,1.390094,1.57545,1
1752551004.822694,1.499716,1.665736,1
1752551004.825686,1.472323,1.864788,1
1752551004.834698,1.553697,1.830899,1
1752551004.8376858,1.566587,1.789004,1
1752551004.8396475,1.48602,1.723745,1
1752551004.8426404,1.495688,1.655262,1
1752551004.8426404,1.438434,1.679432,1
1752551004.8426404,1.364312,1.73019,1
1752551004.8426404,1.516635,1.70038,1
1752551004.8436382,1.310332,1.476351,1
1752551004.8436382,1.350616,1.272465,1
1752551004.8436382,1.467489,1.565782,1
1752551004.8436382,1.54564,1.715688,1
1752551004.8436382,1.536777,1.716494,1
1752551004.8446355,1.56981,1.684266,1
1752551004.8446355,1.50455,1.930854,1
1752551004.8446355,1.530332,2.178246,1
1752551004.8446355,1.500522,1.588341,1
1752551004.8446355,1.171705,1.750332,1
1752551004.8456318,1.354644,1.701991,1
1752551004.8566036,1.458627,1.37398,1
1752551004.8595955,1.361089,1.311943,1
1752551004.8666072,1.381231,1.452987,1
1752551004.8715997,1.568199,1.622179,1
1752551004.8795516,1.717299,1.334502,1
1752551004.881568,1.652039,1.6891,1
1752551004.8835309,1.438434,1.949384,1
1752551004.8865576,1.358672,1.955024,1
1752551004.8865576,1.344976,1.894598,1
1752551004.8865576,1.380426,1.884125,1
1752551004.8865576,1.498105,1.772891,1
1752551004.8865576,1.497299,1.737441,1
1752551004.8875563,1.431183,1.485214,1
1752551004.8875563,1.48602,1.55853,1
1752551004.8875563,1.517441,1.640709,1
1752551004.8875563,1.556919,1.666541,1
1752551004.8885527,1.510996,1.631041,1
1752551004.8885527,1.402985,1.62379,1
1752551004.8885527,1.326445,1.723745,1
1752551004.8885527,1.502939,1.631041,1
1752551004.8895156,1.283744,1.880902,1
1752551004.8895156,1.411847,1.960664,1
1752551004.9004898,1.570616,1.722939,1
1752551004.9025116,1.607677,1.253935,1
1752551004.9104903,1.581089,1.660096,1
1752551004.9221103,1.579478,1.342559,1
1752551004.9221103,1.465878,1.627013,1
1752551004.9260974,1.358672,1.788199,1
1752551004.9280949,1.305498,1.943745,1
1752551004.9300876,1.390094,1.697157,1
1752551004.9300876,1.462655,1.595592,1
1752551004.9310834,1.459432,1.683461,1
1752551004.9310834,1.494882,1.696352,1
1752551004.9310834,1.52872,1.639904,1
1752551004.9310834,1.581895,1.614928,1
1752551004.93205,1.532749,1.540806,1
1752551004.93205,1.408624,1.476351,1
1752551004.93205,1.348199,1.633458,1
1752551004.93205,1.32564,1.982417,1
1752551004.93205,1.382037,2.079149,1
1752551004.9330797,1.582701,1.473129,1
1752551004.9330797,1.481991,1.411041,1
1752551004.9330797,1.376397,1.829288,1
1752551004.9340436,1.461849,2.143603,1
1752551004.9450138,1.647155,1.478769,1
1752551004.948006,1.67057,1.358672,1
1752551004.95502,1.394928,1.743081,1
1752551004.9600098,1.333696,1.685072,1
1752551004.9679883,1.438434,1.518247,1
1752551004.969982,1.299858,1.598009,1
1752551004.9739392,1.363507,1.717299,1
1752551004.9739392,1.500522,1.76,1
1752551004.974934,1.535166,1.677821,1
1752551004.974934,1.563365,1.692323,1
1752551004.974934,1.567393,1.653651,1
1752551004.974934,1.505356,1.51583,1
1752551004.974934,1.43924,1.490854,1
1752551004.9759307,1.357867,1.627013,1
1752551004.9759307,1.339336,1.732607,1
1752551004.9759307,1.399762,1.801895,1
1752551004.9759307,1.431183,1.919574,1
1752551004.9769278,1.467489,1.873651,1
1752551004.9769278,1.495688,1.793838,1
1752551004.9769278,1.532749,2.215308,1
1752551004.9769278,1.712465,1.220851,1
1752551004.977961,1.53436,1.15398,1
1752551004.9879308,1.336919,1.473129,1
1752551004.996875,1.41507,1.502133,1
1752551004.9988701,1.278911,1.691518,1
1752551005.0098763,1.410236,1.710854,1
1752551005.010838,1.458627,1.756777,1
1752551005.0128322,1.431989,1.679432,1
1752551005.0158246,1.517441,1.500522,1
1752551005.017819,1.614928,1.595592,1
1752551005.017819,1.60526,1.79545,1
1752551005.017819,1.483603,1.859149,1
1752551005.018818,1.50455,1.638293,1
1752551005.018818,1.374786,1.646349,1
1752551005.018818,1.279716,1.740664,1
1752551005.018818,1.340948,1.787393,1
1752551005.0198135,1.423127,1.814786,1
1752551005.0198135,1.496493,1.82526,1
1752551005.0198135,1.592369,1.957441,1
1752551005.0198135,1.509384,1.704408,1
1752551005.0198135,1.487631,1.342559,1
1752551005.0208113,1.583507,1.356255,1
1752551005.0208113,1.45057,1.696352,1
1752551005.0317824,1.336919,1.642321,1
1752551005.0347743,1.328057,1.726967,1
1752551005.0417566,1.398956,1.719716,1
1752551005.0447474,1.455404,1.712465,1
1752551005.0547533,1.53436,1.684266,1
1752551005.0567508,1.537583,1.867205,1
1752551005.0587106,1.589146,1.664124,1
1752551005.0617015,1.502133,1.714882,1
1752551005.062699,1.52872,1.522275,1
1752551005.062699,1.495688,1.378009,1
1752551005.062699,1.185402,1.639904,1
1752551005.062699,1.282939,1.466683,1
1752551005.0636966,1.309526,1.514218,1
1752551005.0636966,1.548862,1.321611,1
1752551005.0636966,1.626207,1.838151,1
1752551005.0636966,1.366729,2.191138,1
1752551005.0646954,1.548057,1.738247,1
1752551005.0646954,1.606066,1.827677,1
1752551005.0646954,1.529526,1.855875,1
1752551005.0646954,1.400568,2.023507,1
1752551005.0646954,1.365118,1.554502,1
1752551005.065692,1.482797,1.592369,1
1752551005.065692,1.35545,1.412653,1
1752551005.0766623,1.415875,1.487631,1
1752551005.0796537,1.486825,1.502133,1
1752551005.0856378,1.502939,1.386065,1
1752551005.0926201,1.586729,1.603648,1
1752551005.098603,1.54,1.809952,1
1752551005.100598,1.490854,1.524692,1
1752551005.1026251,1.437629,1.807535,1
1752551005.1045866,1.367535,1.612511,1
1752551005.1065812,1.345782,1.895404,1
1752551005.1065812,1.383648,1.894598,1
1752551005.1065812,1.469906,1.631847,1
1752551005.1065812,1.489242,1.584312,1
1752551005.107579,1.523081,1.600426,1
1752551005.107579,1.543223,1.598009,1
1752551005.107579,1.579478,1.477963,1
1752551005.107579,1.498911,1.639098,1
1752551005.1085773,1.441657,1.75436,1
1752551005.1085773,1.3909,1.806729,1
1752551005.1085773,1.296635,1.63507,1
1752551005.1085773,1.432795,1.751943,1
1752551005.1085773,1.414264,1.535972,1
1752551005.1095734,1.469906,1.690712,1
1752551005.12061,1.457821,1.808341,1
1752551005.1295593,1.427961,1.389288,1
1752551005.1315548,1.540806,1.806729,1
1752551005.142526,1.572227,1.63507,1
1752551005.1435225,1.587535,1.225685,1
1752551005.1465142,1.390094,1.672987,1
1752551005.1485088,1.276493,1.851041,1
1752551005.1505036,1.40943,2.001753,1
1752551005.1505036,1.517441,1.205544,1
1752551005.1505036,1.524692,1.471517,1
1752551005.1515007,1.389288,1.850236,1
1752551005.1515007,1.479574,2.088011,1
1752551005.1515007,1.552085,1.706825,1
1752551005.1515007,1.586729,1.832511,1
1752551005.1524987,1.402985,1.471517,1
1752551005.1524987,1.367535,1.3909,1
1752551005.1524987,1.445736,1.509384,1
1752551005.1524987,1.424738,1.835734,1
1752551005.1524987,1.35545,2.021895,1
1752551005.1534958,1.306304,1.865594,1
1752551005.1534958,1.419904,1.262797,1
1752551005.1534958,1.612511,1.714882,1
1752551005.1654634,1.541611,1.502939,1
1752551005.1684554,1.457015,1.431183,1
1752551005.1744406,1.498105,1.486825,1
1752551005.1764343,1.517441,1.407819,1
1752551005.1864076,1.340948,1.807535,1
1752551005.1884363,1.401373,2.062179,1
1752551005.1913939,1.511801,1.435212,1
1752551005.194387,1.598814,1.525498,1
1752551005.1953833,1.44493,1.51019,1
1752551005.1953833,1.438434,1.577061,1
1752551005.1953833,1.427155,1.370758,1
1752551005.1953833,1.460238,1.544028,1
1752551005.1963806,1.448958,1.691518,1
1752551005.1963806,1.406207,1.755166,1
1752551005.1963806,1.331279,2.0509,1
1752551005.1963806,1.445736,1.712465,1
1752551005.1963806,1.518247,1.822037,1
1752551005.1973782,1.441657,1.955024,1
1752551005.1973782,1.550474,2.190332,1
1752551005.1973782,1.627819,1.3909,1
1752551005.1973782,1.563365,1.29019,1
1752551005.1983752,1.389288,1.373175,1
1752551005.209347,1.241044,1.584312,1
1752551005.212338,1.271659,1.554502,1
1752551005.21893,1.459432,1.851041,1
1752551005.2279055,1.538389,1.708437,1
1752551005.2319267,1.398151,1.581895,1
1752551005.2348864,1.537583,1.656873,1
1752551005.236882,1.544834,1.67621,1
1752551005.2388763,1.482797,1.665736,1
1752551005.2398732,1.526303,1.693935,1
1752551005.2398732,1.506162,1.581895,1
1752551005.2398732,1.448153,1.679432,1
1752551005.2398732,1.335308,1.468295,1
1752551005.2398732,1.342559,1.533555,1
1752551005.2408707,1.525498,1.509384,1
1752551005.2408707,1.543223,1.705214,1
1752551005.2408707,1.544028,2.17019,1
1752551005.2408707,1.508579,1.960664,1
1752551005.241868,1.632653,1.807535,1
1752551005.241868,1.410236,1.517441,1
1752551005.241868,1.225685,1.482797,1
1752551005.241868,1.364312,1.668153,1
1752551005.2428663,1.366729,1.268437,1
1752551005.2528384,1.466683,1.343365,1
1752551005.2558312,1.503745,1.522275,1
1752551005.2628195,1.59962,1.824454,1
1752551005.2658048,1.500522,1.750332,1
1752551005.276775,1.388482,1.72455,1
1752551005.27877,1.463461,1.709242,1
1752551005.280764,1.570616,1.760806,1
1752551005.2837563,1.523886,1.627819,1
1752551005.2837563,1.382037,1.780142,1
1752551005.2837563,1.321611,1.871234,1
1752551005.2847543,1.40379,1.805118,1
1752551005.2847543,1.483603,1.673793,1
1752551005.2847543,1.505356,1.671376,1
1752551005.2847543,1.499716,1.613317,1
1752551005.2847543,1.50455,1.622985,1
1752551005.2857516,1.523081,1.739858,1
1752551005.2857516,1.523081,1.582701,1
1752551005.2857516,1.503745,1.457821,1
1752551005.2857516,1.3909,1.589952,1
1752551005.2867482,1.449764,1.473935,1
1752551005.2867482,1.378009,1.651234,1
1752551005.2867482,1.406207,1.619762,1
1752551005.298716,1.466683,1.522275,1
1752551005.3007398,1.497299,1.631847,1
1752551005.3086896,1.502939,1.584312,1
1752551005.3201678,1.516635,1.722939,1
1752551005.322163,1.519858,1.753554,1
1752551005.3251548,1.48602,1.596397,1
1752551005.3281467,1.427155,1.56981,1
1752551005.3281467,1.377203,1.67621,1
1752551005.3281467,1.402179,1.624596,1
1752551005.3281467,1.440046,1.653651,1
1752551005.3281467,1.466683,1.63507,1
1752551005.3291435,1.457015,1.656068,1
1752551005.3291435,1.4691,1.669764,1
1752551005.3291435,1.489242,1.529526,1
1752551005.3291435,1.519858,1.461849,1
1752551005.3301408,1.515024,1.556919,1
1752551005.3301408,1.440851,1.681044,1
1752551005.3301408,1.407013,1.796255,1
1752551005.3301408,1.378009,1.888959,1
1752551005.3301408,1.446542,1.876873,1
1752551005.3311384,1.432795,1.677821,1
1752551005.3311384,1.502939,1.60526,1
1752551005.3431067,1.459432,1.681849,1
1752551005.3451014,1.521469,1.699574,1
1752551005.3520827,1.678627,1.473935,1
1752551005.360061,1.424738,1.52872,1
1752551005.3650482,1.383648,1.751137,1
1752551005.3680398,1.351421,1.824454,1
1752551005.3700347,1.427961,1.451376,1
1752551005.3710318,1.479574,1.706825,1
1752551005.3720288,1.40943,1.683461,1
1752551005.3720288,1.445736,1.764028,1
1752551005.3720288,1.502939,1.723745,1
1752551005.3720288,1.523081,1.699574,1
1752551005.373027,1.531943,1.693129,1
1752551005.373027,1.482797,1.710854,1
1752551005.373027,1.431183,1.768057,1
1752551005.373027,1.431989,1.768057,1
1752551005.373027,1.394122,1.767251,1
1752551005.3740246,1.366729,1.772085,1
1752551005.3740246,1.460238,1.760806,1
1752551005.3740246,1.490854,1.739052,1
1752551005.3740246,1.549668,1.709242,1
1752551005.3750207,1.508579,1.6891,1
1752551005.385026,1.527109,1.681044,1
1752551005.3880186,1.498911,1.658485,1
1752551005.3949683,1.425544,1.692323,1
1752551005.396996,1.309526,1.780948,1
1752551005.4069378,1.390094,1.70038,1
1752551005.4089622,1.430378,1.689906,1
1752551005.4109573,1.511801,1.796255,1
1752551005.4129586,1.540806,1.763223,1
1752551005.4142828,1.465878,1.852653,1
1752551005.4142828,1.516635,1.731801,1
1752551005.4142828,1.45057,1.723745,1
1752551005.415305,1.492465,1.698769,1
1752551005.415305,1.466683,1.743081,1
1752551005.415305,1.367535,1.790616,1
1752551005.415305,1.438434,1.712465,1
1752551005.4162664,1.413458,1.691518,1
1752551005.4162664,1.424738,1.697963,1
1752551005.4162664,1.481186,1.652845,1
1752551005.4162664,1.499716,1.598814,1
1752551005.4162664,1.544028,1.601231,1
1752551005.4172978,1.535972,1.616539,1
1752551005.4182935,1.499716,1.656873,1
1752551005.4282348,1.427155,1.776919,1
1752551005.4312263,1.353838,1.868011,1
1752551005.437211,1.348199,1.8664,1
1752551005.4402044,1.531943,1.525498,1
1752551005.4501765,1.505356,1.566587,1
1752551005.452209,1.324834,1.690712,1
1752551005.4542136,1.477157,1.699574,1
1752551005.4571917,1.55128,1.681044,1
1752551005.4571917,1.544834,1.722133,1
1752551005.4571917,1.484408,1.66493,1
1752551005.45819,1.441657,1.583507,1
1752551005.45819,1.371563,1.573838,1
1752551005.45819,1.425544,1.537583,1
1752551005.4591835,1.445736,1.612511,1
1752551005.4591835,1.442463,1.743081,1
1752551005.4591835,1.455404,1.855875,1
1752551005.4601834,1.539194,1.835734,1
1752551005.4601834,1.590758,1.652039,1
1752551005.461178,1.529526,1.602843,1
1752551005.461178,1.434406,1.613317,1
1752551005.461178,1.396539,1.668153,1
1752551005.4621758,1.411847,1.639098,1
1752551005.4721491,1.351421,1.769668,1
1752551005.4751415,1.373175,1.664124,1
1752551005.4821239,1.478769,1.695546,1
1752551005.487113,1.493271,1.783365,1
1752551005.4950914,1.52872,1.738247,1
1752551005.4970577,1.583507,1.568199,1
1752551005.499077,1.47474,1.455404,1
1752551005.501072,1.458627,1.584312,1
1752551005.502069,1.426349,1.722133,1
1752551005.502069,1.408624,1.698769,1
1752551005.502069,1.360284,1.70038,1
1752551005.502069,1.360284,1.806729,1
1752551005.502069,1.418293,1.609288,1
1752551005.50307,1.531138,1.661707,1
1752551005.50307,1.53436,1.587535,1
1752551005.50307,1.521469,1.755972,1
1752551005.50307,1.518247,1.721327,1
1752551005.504033,1.489242,1.72455,1
1752551005.504033,1.468295,1.580284,1
1752551005.504033,1.436823,1.464266,1
1752551005.504033,1.342559,1.490854,1
1752551005.5153236,1.378009,1.658485,1
1752551005.5173209,1.477963,1.835734,1
1752551005.5243068,1.43924,1.970332,1
1752551005.5262938,1.612511,1.422321,1
1752551005.537266,1.52872,1.540806,1
1752551005.5392299,1.42071,1.705214,1
1752551005.5412567,1.529526,1.609288,1
1752551005.5422523,1.386065,1.820426,1
1752551005.544246,1.391705,1.884125,1
1752551005.544246,1.398956,1.457015,1
1752551005.5452428,1.401373,1.26038,1
1752551005.5452428,1.452181,1.236965,1
1752551005.5452428,1.502939,1.564976,1
1752551005.5452428,1.614122,2.0864,1
1752551005.5462427,1.472323,1.923603,1
1752551005.5462427,1.486825,1.538389,1
1752551005.5462427,1.402985,1.732607,1
1752551005.5462427,1.339336,1.698769,1
1752551005.5462427,1.383648,1.739052,1
1752551005.5472388,1.393317,1.73019,1
1752551005.5472388,1.467489,1.515024,1
1752551005.548237,1.495688,1.703603,1
1752551005.5581768,1.536777,1.929242,1
1752551005.5601716,1.610899,1.390094,1
1752551005.5671866,1.631041,1.191041,1
1752551005.5691478,1.457015,1.55853,1
1752551005.579154,1.349004,1.996114,1
1752551005.582145,1.370758,1.972749,1
1752551005.5851426,1.378009,1.407013,1
1752551005.5861363,1.364312,1.519858,1
1752551005.5861363,1.292607,1.834928,1
1752551005.5861363,1.518247,1.799478,1
1752551005.5871317,1.598009,1.522275,1
1752551005.5871317,1.586729,1.557725,1
1752551005.5871317,1.647155,1.574644,1
1752551005.5871317,1.485214,1.537583,1
1752551005.5871317,1.454598,1.541611,1
1752551005.588134,1.294218,1.427155,1
1752551005.588134,1.335308,1.531943,1
1752551005.588134,1.413458,1.679432,1
1752551005.588134,1.464266,1.552085,1
1752551005.5891285,1.469906,1.615734,1
1752551005.5991008,1.473935,2.133934,1
1752551005.6010935,1.530332,1.859954,1
1752551005.608075,1.625402,1.699574,1
1752551005.6100726,1.523081,1.53436,1
1752551005.6205878,1.476351,1.589952,1
1752551005.6216164,1.369952,1.729384,1
1752551005.6236172,1.277299,1.660902,1
1752551005.6266067,1.470712,1.464266,1
1752551005.6276045,1.448958,1.681044,1
1752551005.6276045,1.465072,1.59962,1
1752551005.6286,1.633458,1.315166,1
1752551005.6286,1.512607,1.236965,1
1752551005.6286,1.366729,1.452987,1
1752551005.6286,1.361895,1.681044,1
1752551005.6286,1.448153,1.941327,1
1752551005.6295984,1.427155,2.058151,1
1752551005.6295984,1.366729,1.834122,1
1752551005.6295984,1.365118,1.677015,1
1752551005.6295984,1.519052,1.680238,1
1752551005.6295984,1.624596,1.653651,1
1752551005.630596,1.503745,1.564976,1
1752551005.6415668,1.461044,1.547251,1
1752551005.643563,1.473129,1.747109,1
1752551005.6505263,1.56417,1.893793,1
1752551005.6615222,1.523886,1.585924,1
1752551005.6634731,1.533555,1.297441,1
1752551005.6655018,1.369146,1.412653,1
1752551005.6684923,1.276493,1.60526,1
1752551005.6694572,1.341753,1.529526,1
1752551005.6694572,1.477157,1.685878,1
1752551005.6694572,1.532749,1.693129,1
1752551005.6694572,1.442463,1.852653,1
1752551005.6694572,1.53436,1.934882,1
1752551005.6704879,1.55128,1.469906,1
1752551005.6704879,1.499716,1.654456,1
1752551005.6704879,1.429572,1.671376,1
1752551005.6704879,1.386871,1.677821,1
1752551005.671484,1.400568,1.667347,1
1752551005.671484,1.429572,1.672987,1
1752551005.671484,1.459432,1.67621,1
1752551005.671484,1.493271,1.665736,1
1752551005.671484,1.513413,1.666541,1
1752551005.682422,1.536777,1.640709,1
1752551005.685414,1.515024,1.638293,1
1752551005.6923957,1.464266,1.646349,1
1752551005.7033927,1.406207,1.651234,1
1752551005.7043953,1.380426,1.663319,1
1752551005.7073903,1.397345,1.671376,1
1752551005.7093823,1.431989,1.677821,1
1752551005.7103467,1.463461,1.684266,1
1752551005.7113767,1.48038,1.681044,1
1752551005.7113767,1.512607,1.672987,1
1752551005.7113767,1.535166,1.666541,1
1752551005.7113767,1.530332,1.67057,1
1752551005.7113767,1.496493,1.684266,1
1752551005.7123737,1.413458,1.627819,1
1752551005.7123737,1.362701,1.615734,1
1752551005.7123737,1.391705,1.639098,1
1752551005.7123737,1.414264,1.645544,1
1752551005.7123737,1.476351,1.806729,1
1752551005.713374,1.547251,1.928437,1
1752551005.713374,1.454598,1.79545,1
1752551005.7143362,1.494076,1.6891,1
1752551005.7233474,1.57545,1.653651,1
1752551005.7253404,1.440851,1.626207,1
1752551005.732324,1.392511,1.63507,1
1752551005.7343178,1.406207,1.774502,1
1752551005.7452545,1.413458,1.761611,1
1752551005.7472484,1.437629,1.739052,1
1752551005.749243,1.457015,1.732607,1
1752551005.7522352,1.484408,1.714882,1
1752551005.7522352,1.509384,1.664124,1
1752551005.7522352,1.527915,1.622179,1
1752551005.7532659,1.516635,1.600426,1
1752551005.7532659,1.498911,1.570616,1
1752551005.7532659,1.407013,1.613317,1
1752551005.7532659,1.381231,1.730996,1
1752551005.7532659,1.386871,1.786587,1
1752551005.7542617,1.41507,1.796255,1
1752551005.7542617,1.462655,1.756777,1
1752551005.7542617,1.491659,1.713271,1
1752551005.7542617,1.503745,1.645544,1
1752551005.7542617,1.552085,1.6891,1
1752551005.7562282,1.523886,1.685072,1
1752551005.7662334,1.448958,1.647155,1
1752551005.768235,1.419098,1.622985,1
1752551005.7761712,1.418293,1.621373,1
1752551005.7861767,1.371563,1.725356,1
1752551005.7871757,1.457015,1.767251,1
1752551005.7901347,1.459432,1.797061,1
1752551005.7921288,1.4691,1.70602,1
1752551005.7941241,1.490048,1.774502,1
1752551005.7941241,1.588341,1.646349,1
1752551005.7951207,1.525498,1.580284,1
1752551005.7951207,1.477157,1.712465,1
1752551005.7951207,1.402179,1.686683,1
1752551005.7951207,1.344976,1.725356,1
1752551005.7951207,1.386065,1.729384,1
1752551005.7961178,1.421515,1.744692,1
1752551005.7961178,1.484408,1.749526,1
1752551005.7961178,1.506162,1.697963,1
1752551005.7961178,1.494882,1.722939,1
1752551005.7961178,1.525498,1.67621,1
1752551005.7971153,1.538389,1.628624,1
1752551005.8060915,1.496493,1.638293,1
1752551005.8090832,1.406207,1.697963,1
1752551005.816065,1.347393,1.731801,1
1752551005.819083,1.381231,1.691518,1
1752551005.828074,1.438434,1.683461,1
1752551005.830062,1.472323,1.718105,1
1752551005.8330536,1.496493,1.695546,1
1752551005.8360436,1.512607,1.687489,1
1752551005.8360436,1.457821,1.614122,1
1752551005.8360436,1.383648,1.622179,1
1752551005.8360436,1.362701,1.747109,1
1752551005.8360436,1.347393,1.822843,1
1752551005.8370404,1.417487,1.704408,1
1752551005.8370404,1.535972,1.706825,1
1752551005.8370404,1.50455,1.903461,1
1752551005.8370404,1.487631,1.789004,1
1752551005.8370404,1.606871,1.486825,1
1752551005.8380396,1.560142,1.594786,1
1752551005.8380396,1.443269,1.606066,1
1752551005.849011,1.400568,1.677821,1
1752551005.8569896,1.336113,1.755166,1
1752551005.8589764,1.363507,1.56981,1
1752551005.8659675,1.427155,1.529526,1
1752551005.8699543,1.466683,1.647961,1
1752551005.8729138,1.50455,1.748721,1
1752551005.8749413,1.50455,1.691518,1
1752551005.876929,1.555308,1.574644,1
1752551005.876929,1.571421,1.696352,1
1752551005.8779283,1.466683,1.67621,1
1752551005.8779283,1.413458,1.643932,1
1752551005.8779283,1.339336,1.607677,1
1752551005.8779283,1.363507,1.727773,1
1752551005.8779283,1.410236,1.685072,1
1752551005.878923,1.432795,1.753554,1
1752551005.878923,1.492465,1.755972,1
1752551005.878923,1.530332,1.733413,1
1752551005.878923,1.579478,1.684266,1
1752551005.8799202,1.554502,1.631847,1
1752551005.8799202,1.493271,1.611705,1
1752551005.8799202,1.398956,1.580284,1
1752551005.8908982,1.298247,1.610094,1
1752551005.892891,1.380426,1.717299,1
1752551005.8998725,1.465072,1.590758,1
1752551005.9028647,1.440851,1.812369,1
1752551005.91184,1.52872,1.541611,1
1752551005.9128401,1.573033,1.55853,1
1752551005.9158294,1.560142,1.740664,1
1752551005.9178321,1.500522,1.671376,1
1752551005.918822,1.427155,1.815592,1
1752551005.918822,1.353033,1.905072,1
1752551005.9198196,1.395734,1.286967,1
1752551005.9198196,1.424738,1.748721,1
1752551005.9198196,1.299858,1.602843,1
1752551005.9198196,1.524692,1.780142,1
1752551005.9198196,1.620568,1.240238,1
1752551005.9208188,1.44493,1.606066,1
1752551005.9208188,1.377203,1.639098,1
1752551005.9208188,1.51583,1.67621,1
1752551005.9208188,1.568199,1.893793,1
1752551005.9208188,1.446542,1.806729,1
1752551005.9218137,1.283744,1.855875,1
1752551005.9337497,1.343365,1.426349,1
1752551005.940731,1.328862,1.387677,1
1752551005.942726,1.483603,1.448153,1
1752551005.9477122,1.574644,1.351421,1
1752551005.9537232,1.621373,1.441657,1
1752551005.955723,1.644738,1.661707,1
1752551005.957686,1.465878,1.778531,1
1752551005.9607122,1.375592,1.656873,1
1752551005.9607122,1.395734,1.927631,1
1752551005.9607122,1.179762,2.020284,1
1752551005.9617078,1.418293,2.054122,1
1752551005.9617078,1.497299,1.940522,1
1752551005.9617078,1.513413,1.665736,1
1752551005.9617078,1.53436,1.489242,1
1752551005.9627068,1.624596,1.685878,1
1752551005.9627068,1.548862,1.614928,1
1752551005.9627068,1.552085,1.55853,1
1752551005.9627068,1.464266,1.334502,1
1752551005.9627068,1.277299,1.397345,1
1752551005.9637022,1.207961,1.701991,1
1752551005.9637022,1.245878,1.900238,1
1752551005.9746742,1.424738,1.682655,1
1752551005.9766355,1.543223,1.56981,1
1752551005.9836626,1.535166,1.590758,1
1752551005.995585,1.566587,1.726967,1
1752551005.997579,1.642321,1.813175,1
1752551005.9995735,1.616539,1.300664,1
1752551006.0026042,1.478769,1.486825,1
1752551006.0026042,1.455404,1.940522,1
1752551006.0026042,1.452181,1.954218,1
1752551006.003563,1.425544,1.55128,1
1752551006.003563,1.164454,1.400568,1
1752551006.003563,1.168483,1.4336,1
1752551006.003563,1.373175,1.498911,1
1752551006.003563,1.549668,1.591563,1
1752551006.0045614,1.681849,1.671376,1
1752551006.0045614,1.672987,1.788199,1
1752551006.0045614,1.52872,1.678627,1
1752551006.0045614,1.410236,1.682655,1
1752551006.005558,1.34417,1.668153,1
1752551006.005558,1.387677,1.722133,1
1752551006.005558,1.53436,1.766445,1
1752551006.0155308,1.523886,1.76,1
1752551006.018557,1.438434,1.828483,1
1752551006.0255294,1.502133,1.638293,1
1752551006.0274992,1.580284,1.54564,1
1752551006.0375063,1.466683,1.536777,1
1752551006.0385017,1.29019,1.502133,1
1752551006.0414941,1.413458,1.647961,1
1752551006.0444539,1.300664,1.59398,1
1752551006.0444539,1.431183,1.664124,1
1752551006.0444539,1.461044,1.727773,1
1752551006.0444539,1.495688,1.59962,1
1752551006.045451,1.535166,1.43924,1
1752551006.045451,1.594786,1.499716,1
1752551006.045451,1.607677,1.737441,1
1752551006.045451,1.522275,1.76564,1
1752551006.045451,1.419904,1.737441,1
1752551006.0464482,1.358672,1.956635,1
1752551006.0464482,1.352227,1.642321,1
1752551006.0464482,1.404596,1.540806,1
1752551006.0464482,1.371563,1.667347,1
1752551006.0494666,1.430378,1.609288,1
1752551006.0584164,1.535972,1.621373,1
1752551006.060411,1.563365,1.643932,1
1752551006.0673923,1.600426,1.62379,1
1752551006.069422,1.565782,1.587535,1
1752551006.0793607,1.476351,1.585924,1
1752551006.0813868,1.347393,1.62379,1
1752551006.0843794,1.296635,1.652845,1
1752551006.0863733,1.365118,1.672987,1
1752551006.0863733,1.431183,1.671376,1
1752551006.0863733,1.490048,1.652845,1
1752551006.0863733,1.535972,1.666541,1
1752551006.0873706,1.556919,1.690712,1
1752551006.0873706,1.588341,1.647155,1
1752551006.0873706,1.549668,1.614928,1
1752551006.0873706,1.457015,1.553697,1
1752551006.0873706,1.358672,1.51583,1
1752551006.0883708,1.305498,1.620568,1
1752551006.0883708,1.361895,1.767251,1
1752551006.0883708,1.408624,1.82526,1
1752551006.0883708,1.490048,1.790616,1
1752551006.0993385,1.521469,1.727773,1
1752551006.101336,1.523886,1.636681,1
1752551006.1083162,1.614122,1.672181,1
1752551006.1103091,1.552891,1.67057,1
1752551006.1202855,1.477157,1.621373,1
1752551006.1222858,1.362701,1.699574,1
1752551006.1252718,1.308721,1.878485,1
1752551006.127265,1.366729,1.593175,1
1752551006.127265,1.394928,1.613317,1
1752551006.1282642,1.522275,1.571421,1
1752551006.1282642,1.547251,1.76,1
1752551006.1282642,1.56981,1.768057,1
1752551006.1282642,1.571421,1.618956,1
1752551006.129259,1.56417,1.666541,1
1752551006.129259,1.448153,1.767251,1
1752551006.129259,1.334502,1.756777,1
1752551006.129259,1.291801,1.830899,1
1752551006.129259,1.363507,1.806729,1
1752551006.1302602,1.410236,1.613317,1
1752551006.1302602,1.496493,1.621373,1
1752551006.1302602,1.491659,1.639904,1
1752551006.1402297,1.566587,1.624596,1
1752551006.1431983,1.621373,1.643932,1
1752551006.1502025,1.589952,1.625402,1
1752551006.1521997,1.473129,1.597203,1
1752551006.162173,1.342559,1.766445,1
1752551006.1641657,1.270048,1.841373,1
1752551006.167157,1.34417,1.798672,1
1752551006.1691532,1.412653,1.781753,1
1752551006.1691532,1.498911,1.744692,1
1752551006.1691532,1.502939,1.660902,1
1752551006.170158,1.566587,1.619762,1
1752551006.170158,1.643932,1.709242,1
1752551006.170158,1.577867,1.691518,1
1752551006.170158,1.441657,1.685878,1
1752551006.170158,1.326445,1.524692,1
1752551006.1711464,1.293413,1.770474,1
1752551006.1711464,1.366729,1.685878,1
1752551006.1711464,1.414264,1.556113,1
1752551006.1711464,1.497299,1.685878,1
1752551006.1711464,1.537583,1.757583,1
1752551006.1721444,1.570616,1.677015,1
1752551006.183083,1.613317,1.718105,1
1752551006.1850774,1.55853,1.67621,1
1752551006.1920586,1.457015,1.620568,1
1752551006.194054,1.332891,1.750332,1
1752551006.2030625,1.273271,1.710854,1
1752551006.2050583,1.350616,1.679432,1
1752551006.2070515,1.418293,1.645544,1
1752551006.2090137,1.496493,1.633458,1
1752551006.2100446,1.540806,1.581895,1
1752551006.2110395,1.581089,1.650428,1
1752551006.2110395,1.60526,1.654456,1
1752551006.2110395,1.531943,1.644738,1
1752551006.2110395,1.454598,1.674598,1
1752551006.2110395,1.349004,1.718105,1
1752551006.212037,1.277299,1.681044,1
1752551006.212037,1.337725,1.646349,1
1752551006.212037,1.432795,1.689906,1
1752551006.212037,1.489242,1.792227,1
1752551006.212037,1.536777,1.781753,1
1752551006.2130363,1.571421,1.768057,1
1752551006.2140005,1.60526,1.699574,1
1752551006.2229762,1.569004,1.509384,1
1752551006.226002,1.466683,1.607677,1
1752551006.2319584,1.353838,1.652039,1
1752551006.2349763,1.299858,1.713271,1
1752551006.243952,1.345782,1.708437,1
1752551006.2459466,1.399762,1.673793,1
1752551006.2479436,1.478769,1.666541,1
1752551006.2509396,1.542417,1.685072,1
1752551006.2509396,1.565782,1.685072,1
1752551006.2519305,1.60526,1.666541,1
1752551006.2519305,1.555308,1.63507,1
1752551006.2519305,1.436017,1.625402,1
1752551006.2519305,1.336919,1.663319,1
1752551006.2519305,1.286967,1.634264,1
1752551006.2529304,1.369146,1.684266,1
1752551006.2529304,1.435212,1.730996,1
1752551006.2529304,1.498911,1.705214,1
1752551006.2529304,1.531138,1.698769,1
1752551006.2538943,1.580284,1.67621,1
1752551006.2538943,1.59962,1.656068,1
1752551006.2648962,1.547251,1.660902,1
1752551006.2678888,1.432795,1.618956,1
1752551006.2748687,1.310332,1.624596,1
1752551006.2848501,1.271659,1.621373,1
1752551006.2868378,1.365118,1.581895,1
1752551006.2888317,1.434406,1.597203,1
1752551006.2897975,1.486825,1.633458,1
1752551006.2917917,1.532749,1.680238,1
1752551006.2917917,1.573838,1.663319,1
1752551006.2928236,1.627819,1.683461,1
1752551006.2928236,1.556919,1.723745,1
1752551006.2928236,1.431183,1.697963,1
1752551006.2928236,1.343365,1.698769,1
1752551006.293786,1.283744,1.742275,1
1752551006.293786,1.365924,1.706825,1
1752551006.293786,1.397345,1.660096,1
1752551006.293786,1.483603,1.638293,1
1752551006.293786,1.523886,1.600426,1
1752551006.294816,1.555308,1.539194,1
1752551006.294816,1.613317,1.529526,1
1752551006.30579,1.550474,1.547251,1
1752551006.3067853,1.44493,1.78417,1
1752551006.313747,1.351421,1.842179,1
1752551006.3157601,1.280522,1.76,1
1752551006.325734,1.373175,1.643932,1
1752551006.3267303,1.464266,1.581895,1
1752551006.328725,1.548057,1.737441,1
1752551006.3317175,1.548057,1.735024,1
1752551006.3327167,1.513413,1.691518,1
1752551006.3327167,1.578672,1.687489,1
1752551006.3327167,1.477963,1.646349,1
1752551006.3337116,1.406207,1.574644,1
1752551006.3337116,1.351421,1.618956,1
1752551006.3337116,1.266825,1.613317,1
1752551006.3337116,1.337725,1.612511,1
1752551006.3337116,1.461849,1.634264,1
1752551006.3347104,1.532749,1.684266,1
1752551006.3347104,1.566587,1.699574,1
1752551006.3347104,1.600426,1.70038,1
1752551006.3347104,1.635875,1.651234,1
1752551006.3356748,1.55128,1.614928,1
1752551006.3466449,1.425544,1.625402,1
1752551006.3486397,1.296635,1.652039,1
1752551006.3546507,1.241044,1.666541,1
1752551006.356618,1.328057,1.667347,1
1752551006.3665922,1.404596,1.654456,1
1752551006.369618,1.502133,1.667347,1
1752551006.3716106,1.56981,1.665736,1
1752551006.3735728,1.619762,1.669764,1
1752551006.3735728,1.652845,1.677015,1
1752551006.3735728,1.562559,1.705214,1
1752551006.3735728,1.405402,1.684266,1
1752551006.3745718,1.285356,1.672987,1
1752551006.3745718,1.229714,1.65929,1
1752551006.3745718,1.323223,1.622179,1
1752551006.3745718,1.429572,1.631041,1
1752551006.3745718,1.515024,1.73019,1
1752551006.3755677,1.581089,1.78417,1
1752551006.3755677,1.609288,1.614122,1
1752551006.3755677,1.650428,1.495688,1
1752551006.3755677,1.506967,1.517441,1
1752551006.3855746,1.344976,1.631041,1
1752551006.388568,1.324834,1.698769,1
1752551006.395515,1.286162,1.585924,1
1752551006.3985064,1.345782,1.682655,1
1752551006.4074824,1.48602,1.722133,1
1752551006.4094772,1.581089,1.838956,1
1752551006.4124691,1.616539,2.013033,1
1752551006.415461,1.602843,1.815592,1
1752551006.415461,1.559336,1.521469,1
1752551006.415461,1.48038,1.55128,1
1752551006.415461,1.28455,1.706825,1
1752551006.415461,1.227297,1.722939,1
1752551006.4164586,1.328862,1.531138,1
1752551006.4164586,1.431989,1.461044,1
1752551006.4164586,1.397345,1.470712,1
1752551006.4164586,1.465878,1.614122,1
1752551006.4164586,1.524692,1.651234,1
1752551006.417456,1.657679,1.692323,1
1752551006.417456,1.686683,1.671376,1
1752551006.417456,1.610094,1.668959,1
1752551006.417456,1.445736,1.652845,1
1752551006.4294238,1.291801,1.680238,1
1752551006.436405,1.228102,1.706825,1
1752551006.4384,1.296635,1.693935,1
1752551006.4413931,1.412653,1.67621,1
1752551006.4503953,1.523886,1.656068,1
1752551006.453386,1.601231,1.685072,1
1752551006.4573495,1.641515,1.685878,1
1752551006.4573495,1.642321,1.627819,1
1752551006.4583461,1.544834,1.608482,1
1752551006.4583461,1.400568,1.628624,1
1752551006.4583461,1.279716,1.663319,1
1752551006.4583461,1.236965,1.686683,1
1752551006.4583461,1.344976,1.695546,1
1752551006.459343,1.430378,1.697963,1
1752551006.459343,1.527915,1.697157,1
1752551006.459343,1.581089,1.695546,1
1752551006.459343,1.632653,1.663319,1
1752551006.459343,1.631041,1.647155,1
1752551006.4603403,1.566587,1.640709,1
1752551006.4603403,1.371563,1.642321,1
1752551006.4603403,1.289384,1.647155,1
1752551006.4703145,1.26602,1.685072,1
1752551006.4733062,1.321611,1.654456,1
1752551006.4802876,1.435212,1.672181,1
1752551006.4832797,1.508579,1.661707,1
1752551006.4932532,1.587535,1.639098,1
1752551006.4952476,1.613317,1.562559,1
1752551006.4972427,1.660096,1.581089,1
1752551006.5002341,1.560948,1.653651,1
1752551006.5002341,1.406207,1.706825,1
1752551006.5002341,1.278911,1.776114,1
1752551006.501232,1.236965,1.764834,1
1752551006.501232,1.330474,1.661707,1
1752551006.501232,1.429572,1.624596,1
1752551006.501232,1.535166,1.669764,1
1752551006.501232,1.571421,1.674598,1
1752551006.5022564,1.631847,1.76,1
1752551006.5022564,1.668959,1.610094,1
1752551006.5022564,1.543223,1.588341,1
1752551006.5022564,1.370758,1.525498,1
1752551006.5022564,1.278105,1.565782,1
1752551006.503237,1.265214,1.71891,1
1752551006.5042472,1.331279,1.735024,1
1752551006.5141976,1.422321,1.743081,1
1752551006.5171888,1.539194,1.743081,1
1752551006.5236824,1.569004,1.658485,1
1752551006.5246792,1.628624,1.60526,1
1752551006.5306613,1.655262,1.643126,1
1752551006.5376425,1.563365,1.614122,1
1752551006.5406353,1.380426,1.63507,1
1752551006.542629,1.270854,1.65929,1
1752551006.5446239,1.272465,1.706825,1
1752551006.545622,1.348199,1.736635,1
1752551006.545622,1.428766,1.73019,1
1752551006.545622,1.517441,1.697963,1
1752551006.545622,1.57545,1.680238,1
1752551006.545622,1.622985,1.687489,1
1752551006.546619,1.634264,1.679432,1
1752551006.546619,1.549668,1.677821,1
1752551006.546619,1.441657,1.614122,1
1752551006.546619,1.267631,1.624596,1
1752551006.547616,1.253935,1.689906,1
1752551006.547616,1.338531,1.639098,1
1752551006.547616,1.422321,1.693129,1
1752551006.547616,1.505356,1.712465,1
1752551006.5585866,1.562559,1.714882,1
1752551006.5615788,1.642321,1.631041,1
1752551006.5685601,1.651234,1.60526,1
1752551006.5765393,1.547251,1.601231,1
1752551006.5805285,1.40943,1.614928,1
1752551006.5825546,1.298247,1.738247,1
1752551006.5845494,1.2136,1.71891,1
1752551006.5875428,1.336919,1.716494,1
1752551006.5875428,1.451376,1.706825,1
1752551006.5875428,1.513413,1.696352,1
1752551006.5875428,1.577061,1.70602,1
1752551006.5885403,1.640709,1.703603,1
1752551006.5885403,1.663319,1.625402,1
1752551006.5885403,1.544028,1.628624,1
1752551006.5885403,1.374786,1.653651,1
1752551006.5885403,1.274882,1.671376,1
1752551006.5895052,1.267631,1.667347,1
1752551006.5895052,1.335308,1.669764,1
1752551006.5895052,1.434406,1.673793,1
1752551006.5895052,1.52872,1.658485,1
1752551006.5895052,1.588341,1.618151,1
1752551006.6005068,1.631041,1.566587,1
1752551006.6025035,1.643932,1.547251,1
1752551006.6035004,1.549668,1.651234,1
1752551006.6114452,1.366729,1.689906,1
1752551006.6184554,1.261991,1.753554,1
1752551006.6239212,1.241044,1.807535,1
1752551006.625917,1.332085,1.772891,1
1752551006.6279104,1.429572,1.761611,1
1752551006.6299047,1.507773,1.712465,1
1752551006.6299047,1.573838,1.690712,1
1752551006.6309295,1.631041,1.624596,1
1752551006.6309295,1.647155,1.619762,1
1752551006.6309295,1.538389,1.671376,1
1752551006.6309295,1.382843,1.65929,1
1752551006.6319268,1.26038,1.597203,1
1752551006.6319268,1.271659,1.662513,1
1752551006.6319268,1.345782,1.773696,1
1752551006.6319268,1.429572,1.714882,1
1752551006.6319268,1.518247,1.66493,1
1752551006.632929,1.57545,1.697157,1
1752551006.632929,1.630236,1.693935,1
1752551006.642871,1.639098,1.660902,1
1752551006.6458619,1.541611,1.627819,1
1752551006.6528432,1.382037,1.643932,1
1752551006.654838,1.283744,1.644738,1
1752551006.6658087,1.281327,1.661707,1
1752551006.6678033,1.362701,1.698769,1
1752551006.668801,1.3909,1.697157,1
1752551006.6707954,1.487631,1.663319,1
1752551006.67279,1.581895,1.677015,1
1752551006.67279,1.634264,1.680238,1
1752551006.6737874,1.647961,1.65929,1
1752551006.6737874,1.547251,1.652039,1
1752551006.6737874,1.386871,1.651234,1
1752551006.6737874,1.247489,1.657679,1
1752551006.6737874,1.251517,1.642321,1
1752551006.6747851,1.357867,1.637487,1
1752551006.6747851,1.453793,1.667347,1
1752551006.6747851,1.547251,1.669764,1
1752551006.6747851,1.588341,1.657679,1
1752551006.6758182,1.641515,1.560142,1
1752551006.6758182,1.641515,1.595592,1
1752551006.6758182,1.55853,1.735024,1
1752551006.686753,1.370758,1.686683,1
1752551006.6887474,1.240238,1.693935,1
1752551006.6967266,1.194264,1.620568,1
1752551006.6997182,1.331279,1.697157,1
1752551006.7086966,1.438434,1.714882,1
1752551006.7107208,1.51583,1.606871,1
1752551006.7127156,1.588341,1.67057,1
1752551006.7157073,1.665736,1.706825,1
1752551006.7157073,1.656873,1.651234,1
1752551006.7166722,1.531943,1.614122,1
1752551006.7166722,1.380426,1.651234,1
1752551006.7166722,1.31436,1.712465,1
1752551006.7166722,1.296635,1.730996,1
1752551006.7176695,1.395734,1.764028,1
1752551006.7176695,1.422321,1.710048,1
1752551006.7176695,1.441657,1.713271,1
1752551006.7176695,1.502133,1.673793,1
1752551006.7176695,1.588341,1.686683,1
1752551006.7186666,1.616539,1.606066,1
1752551006.7186666,1.460238,1.594786,1
1752551006.7186666,1.369952,1.639904,1
1752551006.729905,1.324834,1.654456,1
1752551006.7319,1.286967,1.6891,1
1752551006.7388816,1.35545,1.680238,1
1752551006.739879,1.445736,1.602843,1
1752551006.7458625,1.570616,1.641515,1
1752551006.7518792,1.595592,1.633458,1
1752551006.7538416,1.655262,1.59398,1
1752551006.755835,1.640709,1.669764,1
1752551006.7578304,1.502939,1.702797,1
1752551006.759826,1.378009,1.696352,1
1752551006.759826,1.261991,1.665736,1
1752551006.759826,1.235354,1.656873,1
1752551006.759826,1.330474,1.640709,1
1752551006.759826,1.446542,1.642321,1
1752551006.7608223,1.547251,1.681849,1
1752551006.7608223,1.62379,1.660902,1
1752551006.7608223,1.672181,1.616539,1
1752551006.7608223,1.673793,1.72455,1
1752551006.7618203,1.523081,1.692323,1
1752551006.7618203,1.405402,1.606066,1
1752551006.7618203,1.238627,1.666541,1
1752551006.7618203,1.203932,1.716494,1
1752551006.772792,1.274076,1.827677,1
1752551006.775783,1.419098,1.749526,1
1752551006.782764,1.51583,1.738247,1
1752551006.7857556,1.584312,1.67621,1
1752551006.7957296,1.70602,1.622179,1
1752551006.797724,1.690712,1.580284,1
1752551006.8007479,1.522275,1.607677,1
1752551006.8027422,1.370758,1.714882,1
1752551006.8027422,1.247489,1.731801,1
1752551006.8027422,1.271659,1.693129,1
1752551006.8027422,1.287773,1.483603,1
1752551006.803722,1.341753,1.521469,1
1752551006.803722,1.523081,1.661707,1
1752551006.803722,1.66493,1.726162,1
1752551006.803722,1.717299,1.677821,1
1752551006.8047385,1.59398,1.602843,1
1752551006.8047385,1.508579,1.651234,1
1752551006.8047385,1.330474,1.60526,1
1752551006.8047385,1.292607,1.684266,1
1752551006.8047385,1.297441,1.751943,1
1752551006.8057332,1.365118,1.683461,1
1752551006.8057332,1.4336,1.610899,1
1752551006.816705,1.53436,1.709242,1
1752551006.8187008,1.677821,1.740664,1
1752551006.8258839,1.66493,1.975166,1
1752551006.8288753,1.669764,1.905072,1
1752551006.8388488,1.652039,1.589952,1
1752551006.8418415,1.347393,1.180568,1
1752551006.8448324,1.104028,1.278105,1
1752551006.84583,0.9573449,1.618956,1
1752551006.8468275,1.238627,1.798672,1
1752551006.8468275,1.556113,1.801895,1
1752551006.8468275,1.652039,1.690712,1
1752551006.8468275,1.65929,1.706825,1
1752551006.8478246,1.651234,1.624596,1
1752551006.8478246,1.66493,1.592369,1
1752551006.8478246,1.531943,1.581895,1
1752551006.8478246,1.386065,1.622179,1
1752551006.8478246,1.267631,1.673793,1
1752551006.8488224,1.273271,1.691518,1
1752551006.8488224,1.32564,1.706825,1
1752551006.8488224,1.419904,1.711659,1
1752551006.8488224,1.55128,1.699574,1
1752551006.8577976,1.579478,1.693935,1
1752551006.859826,1.66493,1.660096,1
1752551006.8628175,1.640709,1.631847,1
1752551006.8698,1.521469,1.624596,1
1752551006.872758,1.360284,1.627013,1
1752551006.8827631,1.244266,1.585924,1
1752551006.884758,1.262797,1.609288,1
1752551006.887751,1.352227,1.657679,1
1752551006.8897448,1.460238,1.712465,1
1752551006.8907404,1.547251,1.748721,1
1752551006.8907404,1.589146,1.742275,1
1752551006.8907404,1.657679,1.701991,1
1752551006.8907404,1.646349,1.681044,1
1752551006.891708,1.519052,1.673793,1
1752551006.891708,1.351421,1.671376,1
1752551006.891708,1.236159,1.650428,1
1752551006.891708,1.25474,1.63507,1
1752551006.891708,1.366729,1.644738,1
1752551006.8927393,1.466683,1.615734,1
1752551006.8927393,1.52872,1.652039,1
1752551006.8927393,1.588341,1.67057,1
1752551006.8927393,1.658485,1.684266,1
1752551006.893736,1.641515,1.677821,1
1752551006.9047062,1.519052,1.668153,1
1752551006.9057026,1.357061,1.686683,1
1752551006.9136488,1.274882,1.689906,1
1752551006.9156432,1.274882,1.674598,1
1752551006.9278219,1.345782,1.671376,1
1752551006.9288526,1.440046,1.642321,1
1752551006.9308453,1.536777,1.589146,1
1752551006.932841,1.595592,1.627013,1
1752551006.934835,1.644738,1.622985,1
1752551006.934835,1.633458,1.641515,1
1752551006.935833,1.521469,1.737441,1
1752551006.935833,1.342559,1.743081,1
1752551006.935833,1.242655,1.737441,1
1752551006.935833,1.275688,1.697963,1
1752551006.9368312,1.380426,1.680238,1
1752551006.9368312,1.436017,1.704408,1
1752551006.9368312,1.527915,1.721327,1
1752551006.9368312,1.600426,1.673793,1
1752551006.9368312,1.656873,1.62943,1
1752551006.9378264,1.643126,1.63507,1
1752551006.9378264,1.525498,1.640709,1
1752551006.9378264,1.357061,1.652039,1
1752551006.9497626,1.241849,1.673793,1
1752551006.9517562,1.275688,1.647961,1
1752551006.9597354,1.348199,1.668153,1
1752551006.9647233,1.452181,1.736635,1
1752551006.9717038,1.543223,1.696352,1
1752551006.9756935,1.586729,1.635875,1
1752551006.9786851,1.627013,1.600426,1
1752551006.9786851,1.658485,1.57545,1
1752551006.9786851,1.531943,1.628624,1
1752551006.979683,1.32564,1.616539,1
1752551006.979683,1.242655,1.720522,1
1752551006.979683,1.297441,1.811563,1
1752551006.979683,1.369952,1.726967,1
1752551006.979683,1.461849,1.671376,1
1752551006.9806805,1.553697,1.616539,1
1752551006.9806805,1.594786,1.661707,1
1752551006.9806805,1.662513,1.669764,1
1752551006.9806805,1.607677,1.710854,1
1752551006.9816773,1.494076,1.706825,1
1752551006.9816773,1.336919,1.70038,1
1752551006.9816773,1.258769,1.768057,1
1752551006.9816773,1.265214,1.691518,1
1752551006.9926486,1.365118,1.738247,1
1752551006.9946432,1.473129,1.638293,1
1752551007.0026531,1.529526,1.66493,1
1752551007.0056405,1.585924,1.663319,1
1752551007.0155869,1.627013,1.616539,1
1752551007.0175815,1.60526,1.620568,1
1752551007.0205734,1.499716,1.642321,1
1752551007.0228534,1.357061,1.655262,1
1752551007.0228534,1.2491,1.689906,1
1752551007.0238419,1.291801,1.706825,1
1752551007.0238419,1.361089,1.673793,1
1752551007.0238419,1.445736,1.628624,1
1752551007.0238419,1.53436,1.590758,1
1752551007.0248392,1.589146,1.645544,1
1752551007.0248392,1.678627,1.677821,1
1752551007.0248392,1.647155,1.652845,1
1752551007.0248392,1.506162,1.726967,1
1752551007.0258358,1.328057,1.764028,1
1752551007.0258358,1.222463,1.76564,1
1752551007.0258358,1.316777,1.745498,1
1752551007.0258358,1.388482,1.660902,1
1752551007.026834,1.455404,1.677015,1
1752551007.0378044,1.560142,1.693129,1
1752551007.039833,1.593175,1.667347,1
1752551007.040831,1.650428,1.66493,1
1752551007.0467808,1.622985,1.621373,1
1752551007.0487754,1.497299,1.610094,1
1752551007.0597813,1.366729,1.72455,1
1752551007.0617476,1.245878,1.714882,1
1752551007.0637352,1.291801,1.684266,1
1752551007.066727,1.350616,1.658485,1
1752551007.066727,1.431183,1.680238,1
1752551007.0677514,1.524692,1.680238,1
1752551007.0677514,1.576255,1.689906,1
1752551007.0677514,1.644738,1.679432,1
1752551007.0677514,1.627819,1.652039,1
1752551007.068751,1.513413,1.631847,1
1752551007.068751,1.360284,1.639904,1
1752551007.068751,1.247489,1.656873,1
1752551007.068751,1.305498,1.637487,1
1752551007.068751,1.371563,1.639098,1
1752551007.0697522,1.436017,1.618956,1
1752551007.0697522,1.529526,1.631847,1
1752551007.0697522,1.598814,1.656873,1
1752551007.0806904,1.639098,1.656873,1
1752551007.083714,1.577061,1.653651,1
1752551007.090663,1.47474,1.665736,1
1752551007.0936556,1.354644,1.627819,1
1752551007.1036289,1.264408,1.614928,1
1752551007.1066198,1.286967,1.678627,1
1752551007.1086156,1.360284,1.751943,1
1752551007.1106098,1.43924,1.786587,1
1752551007.1106098,1.544028,1.751137,1
1752551007.111607,1.611705,1.713271,1
1752551007.111607,1.684266,1.564976,1
1752551007.111607,1.614122,1.576255,1
1752551007.111607,1.530332,1.698769,1
1752551007.1126046,1.353033,1.647155,1
1752551007.1126046,1.253129,1.657679,1
1752551007.1126046,1.321611,1.691518,1
1752551007.1126046,1.402985,1.719716,1
1752551007.1126046,1.43924,1.627013,1
1752551007.1136026,1.429572,1.62379,1
1752551007.1136026,1.530332,1.776919,1
1752551007.1136026,1.673793,1.762417,1
1752551007.1136026,1.631041,1.619762,1
1752551007.1235754,1.48038,1.621373,1
1752551007.126567,1.348199,1.624596,1
1752551007.1285615,1.229714,1.614122,1
1752551007.1355429,1.285356,1.653651,1
1752551007.1385355,1.394122,1.657679,1
1752551007.1475112,1.531138,1.653651,1
1752551007.1505375,1.598814,1.627819,1
1752551007.1545243,1.587535,1.557725,1
1752551007.1554894,1.62943,1.541611,1
1752551007.1554894,1.597203,1.581089,1
1752551007.1554894,1.497299,1.726162,1
1752551007.1554894,1.354644,1.693129,1
1752551007.1554894,1.220851,1.78981,1
1752551007.1565225,1.210378,1.913129,1
1752551007.1565225,1.300664,1.859954,1
1752551007.1565225,1.522275,1.660902,1
1752551007.1565225,1.60526,1.600426,1
1752551007.1574838,1.614928,1.554502,1
1752551007.1574838,1.673793,1.536777,1
1752551007.1574838,1.611705,1.341753,1
1752551007.1574838,1.523081,1.60526,1
1752551007.1584823,1.313555,1.822037,1
1752551007.1695485,1.238627,1.856732,1
1752551007.1706514,1.349004,1.798672,1
1752551007.1786776,1.384454,1.726162,1
1752551007.1811786,1.506162,1.477157,1
1752551007.1911514,1.492465,1.477963,1
1752551007.1931462,1.530332,1.788199,1
1752551007.196138,1.606871,1.814786,1
1752551007.19913,1.621373,1.703603,1
1752551007.19913,1.521469,1.658485,1
1752551007.19913,1.304692,1.571421,1
1752551007.19913,1.161231,1.600426,1
1752551007.2001557,1.312749,1.696352,1
1752551007.2001557,1.448958,1.738247,1
1752551007.2001557,1.50455,1.685072,1
1752551007.2001557,1.631847,1.561753,1
1752551007.2001557,1.607677,1.639098,1
1752551007.2011535,1.620568,1.661707,1
1752551007.2011535,1.574644,1.640709,1
1752551007.2011535,1.438434,1.661707,1
1752551007.2011535,1.336919,1.832511,1
1752551007.202154,1.242655,1.781753,1
1752551007.202154,1.266825,1.625402,1
1752551007.2131252,1.364312,1.505356,1
1752551007.2150874,1.4691,1.510996,1
1752551007.2238321,1.577061,1.554502,1
1752551007.228819,1.598814,1.72455,1
1752551007.2348034,1.723745,1.869622,1
1752551007.2378292,1.553697,1.789004,1
1752551007.2407863,1.431183,1.502939,1
1752551007.2427816,1.271659,1.607677,1
1752551007.2427816,1.142701,1.597203,1
1752551007.2427816,1.362701,1.652845,1
1752551007.2427816,1.457015,1.711659,1
1752551007.2437782,1.531138,1.716494,1
1752551007.2437782,1.653651,1.76,1
1752551007.2437782,1.582701,1.563365,1
1752551007.2437782,1.608482,1.529526,1
1752551007.2437782,1.581089,1.654456,1
1752551007.2447772,1.520664,1.603648,1
1752551007.2447772,1.361089,1.557725,1
1752551007.2447772,1.132227,1.678627,1
1752551007.2447772,1.216017,1.698769,1
1752551007.2457733,1.429572,1.714882,1
1752551007.2457733,1.489242,1.701991,1
1752551007.2577415,1.548862,1.677015,1
1752551007.2587395,1.601231,1.71891,1
1752551007.2667174,1.641515,1.685072,1
1752551007.2687125,1.627819,1.653651,1
1752551007.2787247,1.564976,1.583507,1
1752551007.2807126,1.37962,1.576255,1
1752551007.2837079,1.242655,1.581895,1
1752551007.2866993,1.195875,1.596397,1
1752551007.2866993,1.339336,1.608482,1
1752551007.2866993,1.531138,1.717299,1
1752551007.2866993,1.573033,1.790616,1
1752551007.287695,1.592369,1.772891,1
1752551007.287695,1.615734,1.697157,1
1752551007.287695,1.554502,1.657679,1
1752551007.287695,1.465072,1.657679,1
1752551007.287695,1.37962,1.664124,1
1752551007.2886915,1.311943,1.662513,1
1752551007.2886915,1.358672,1.660096,1
1752551007.2886915,1.412653,1.705214,1
1752551007.2886915,1.458627,1.683461,1
1752551007.289656,1.514218,1.627013,1
1752551007.289656,1.552891,1.602037,1
1752551007.3006592,1.609288,1.573838,1
1752551007.302656,1.529526,1.570616,1
1752551007.310601,1.454598,1.622179,1
1752551007.3126273,1.358672,1.689906,1
1752551007.3225677,1.338531,1.725356,1
1752551007.3255944,1.378814,1.721327,1
1752551007.3275893,1.419904,1.728579,1
